15.115474
16.732330
18.028405
18.512441
17.871172
16.064265
13.328235
10.069100
6.688662
3.424536
0.278018
-2.938510
-6.461168
-10.412497
-14.699058
-19.020514
-22.987156
-26.291265
-28.854718
-30.890081
-32.854988
-35.325410
-38.836232
-43.728959
-50.023218
-57.317424
-64.736640
-70.969839
-74.444973
-73.653934
-67.565626
-55.994193
-39.769982
-20.617378
-0.758314
17.622535
32.857248
44.058549
51.113443
54.471509
54.863642
53.079666
49.864423
45.910405
41.876950
38.369847
35.859591
34.570902
34.407800
34.968481
35.660039
35.873269
35.149757
33.280547
30.311887
26.474574
22.078144
17.413570
12.692607
8.030357
3.462611
-1.017004
-5.416401
-9.714875
-13.852292
-17.740697
-21.294583
-24.469293
-27.295403
-29.901550
-32.523014
-35.491484
-39.191440
-43.960177
-49.921463
-56.785741
-63.702460
-69.273099
-71.795073
-69.709319
-62.111436
-49.123216
-31.955872
-12.621804
6.594253
23.693194
37.342298
46.976227
52.655512
54.817656
54.066030
51.073817
46.585653
41.436260
36.504878
32.577222
30.157082
29.317029
29.673918
30.520598
31.071043
30.720979
29.216871
26.668629
23.416171
19.827790
16.133157
12.365125
8.420072
4.183849
-0.355877
-5.070830
-9.738330
-14.135616
-18.125365
-21.691972
-24.925623
-27.983434
-31.063149
-34.401330
-38.270481
-42.926739
-48.476293
-54.684283
-60.814324
-65.616180
-67.540780
-65.160183
-57.653845
-45.160256
-28.830433
-10.545781
7.585601
23.743549
36.723662
45.993830
51.539043
53.644515
52.757374
49.474485
44.594996
39.122997
34.139181
30.553056
28.837354
28.878150
30.028915
31.359989
31.999511
31.418274
29.541407
26.656588
23.185317
19.442084
15.500184
11.218788
6.399038
0.972913
-4.882321
-10.766455
-16.201952
-20.826345
-24.538852
-27.541222
-30.270723
-33.269292
-37.040854
-41.924230
-47.979980
-54.885435
-61.861054
-67.686158
-70.864410
-69.950785
-63.967769
-52.766026
-37.174803
-18.858481
0.082514
17.618064
32.213683
43.037987
49.927781
53.194747
53.406378
51.244929
47.466881
42.906110
38.436546
34.847042
32.654911
31.946648
32.342835
33.130701
33.523021
32.934548
31.154863
28.346325
24.880915
21.107160
17.168645
12.963326
8.255890
2.875208
-3.113855
-9.360426
-15.332199
-20.527808
-24.695865
-27.957716
-30.781378
-33.825717
-37.724029
-42.881603
-49.331871
-56.660473
-63.993744
-70.063370
-73.377981
-72.518846
-66.519394
-55.216327
-39.424868
-20.831871
-1.611172
16.108682
30.723908
41.411322
48.102940
51.252619
51.545752
49.691677
46.355901
42.193199
37.889330
34.132467
31.497545
30.292973
30.450241
31.521711
32.803715
33.545661
33.168349
31.412482
28.368703
24.388348
19.919419
15.337589
10.838697
6.428631
2.001496
-2.541102
-7.191576
-11.806618
-16.158645
-20.041159
-23.376060
-26.273457
-29.021947
-32.020610
-35.682710
-40.337146
-46.133495
-52.941231
-60.245695
-67.080500
-72.068864
-73.637108
-70.396376
-61.591102
-47.443343
-29.230981
-9.034870
10.767109
28.069228
41.461667
50.381537
54.997139
55.942861
54.055872
50.214800
45.288140
40.128247
35.533882
32.146775
30.311723
29.973103
30.677172
31.703358
32.286656
31.849010
30.151454
27.313338
23.702208
19.750024
15.776380
11.889467
7.997195
3.911631
-0.509135
-5.250783
-10.115576
-14.789076
-18.967528
-22.486038
-25.391201
-27.932646
-30.488872
-33.468683
-37.222987
-41.971040
-47.719974
-54.162308
-60.576747
-65.805261
-68.388816
-66.889892
-60.330634
-48.586038
-32.553005
-13.994943
4.895429
22.043273
35.934707
45.809166
51.589208
53.657929
52.636858
49.266803
44.392162
38.966017
33.982093
30.300904
28.424546
28.331243
29.471780
30.957527
31.873545
31.584939
29.905792
27.066604
23.513398
19.649400
15.648858
11.426390
6.762432
1.507397
-4.249661
-10.141051
-15.635240
-20.254300
-23.791435
-26.427394
-28.694393
-31.305280
-34.917165
-39.910516
-46.239902
-53.375710
-60.335253
-65.802794
-68.343638
-66.702511
-60.134776
-48.674369
-33.230115
-15.444758
2.659997
19.137790
32.514495
42.002952
47.499350
49.419988
48.486994
45.555130
41.511302
37.218726
33.455010
30.815787
29.601370
29.738774
30.792158
32.081807
32.883521
32.640814
31.112157
28.399837
24.852784
20.885081
16.787857
12.617811
8.213375
3.331700
-2.158516
-8.126419
-14.156178
-19.678658
-24.207236
-27.571532
-30.038240
-32.259107
-35.063021
-39.169854
-44.922302
-52.109617
-59.919026
-67.023439
-71.800876
-72.664135
-68.446874
-58.751067
-44.137959
-26.071769
-6.607282
12.084156
28.185614
40.544864
48.748500
52.993493
53.866063
52.143396
48.675538
44.330670
39.947886
36.254871
33.753420
32.617584
32.658724
33.385480
34.144899
34.298623
33.379265
31.185659
27.798593
23.520035
18.756288
13.879611
9.112466
4.477901
-0.159474
-4.974540
-10.037464
-15.217440
-20.192308
-24.573138
-28.092666
-30.768524
-32.959637
-35.282098
-38.411119
-42.837268
-48.653209
-55.429551
-62.212412
-67.652080
-70.251129
-68.693945
-62.187267
-50.717189
-35.132388
-17.007984
1.681277
18.978667
33.322820
43.779814
50.092315
52.578670
51.954540
49.146529
45.135445
40.834277
36.991594
34.115544
32.425818
31.847185
32.053007
32.555027
32.821686
32.397910
30.999192
28.559454
25.222177
21.277462
17.062772
12.857069
8.802340
4.880805
0.958143
-3.122530
-7.434135
-11.894734
-16.269030
-20.249128
-23.586006
-26.217644
-28.338608
-30.379903
-32.902287
-36.433530
-41.290141
-47.420650
-54.302792
-60.927837
-65.906031
-67.711162
-65.038707
-57.191492
-44.362686
-27.695198
-9.068330
9.331670
25.511249
38.068737
46.376537
50.529715
51.136234
49.064802
45.245028
40.556259
35.784496
31.600313
28.520126
26.842373
26.580942
27.436122
28.838780
30.078011
30.486098
29.622407
27.387482
24.018903
19.965779
15.692098
11.495104
7.421259
3.316177
-1.022818
-5.675368
-10.499834
-15.160355
-19.265803
-22.550535
-25.009637
-26.929828
-28.810924
-31.219676
-34.632718
-39.305899
-45.176034
-51.788900
-58.266025
-63.353781
-65.604846
-63.699846
-56.838328
-45.059904
-29.349697
-11.455591
6.532971
22.688364
35.642434
44.751896
50.023314
51.896201
51.020623
48.123379
43.971188
39.369054
35.118205
31.900097
30.117904
29.772532
30.448367
31.437312
31.965363
31.437024
29.603352
26.591089
22.788158
18.641853
14.461751
10.313405
6.045877
1.433407
-3.643381
-9.071035
-14.499834
-19.470996
-23.616578
-26.838442
-29.385196
-31.796228
-34.738555
-38.795681
-44.268148
-51.025591
-58.434019
-65.380583
-70.418082
-72.034140
-69.008072
-60.766487
-47.617854
-30.764534
-12.063368
6.396383
22.755770
35.737051
44.786108
50.001997
51.930470
51.330865
49.002280
45.697476
42.097892
38.799530
36.271837
34.786843
34.351639
34.690798
35.307843
35.618210
35.111511
33.486083
30.710314
26.994644
22.689902
18.151873
13.622525
9.171205
4.716076
0.114315
-4.719975
-9.726791
-14.688214
-19.306658
-23.340941
-26.737319
-29.693593
-32.626017
-36.053846
-40.446028
-46.072377
-52.880626
-60.407618
-67.741459
-73.572970
-76.380369
-74.755121
-67.804453
-55.496776
-38.800221
-19.526983
0.085633
17.912057
32.398611
42.796144
49.124191
51.940172
52.049812
50.281870
47.380439
43.991231
40.677934
37.912274
36.020725
35.113460
35.042475
35.426158
35.746587
35.492418
34.299164
32.038120
28.824347
24.944827
20.738403
16.476957
12.294644
8.189906
4.090806
-0.056294
-4.224436
-8.303537
-12.156427
-15.698545
-18.954135
-22.057709
-25.204892
-28.589675
-32.371320
-36.686175
-41.674300
-47.459592
-54.035347
-61.071115
-67.737474
-72.686068
-74.280968
-71.059473
-62.264040
-48.214546
-30.335202
-10.800161
8.060139
24.342944
36.922942
45.479021
50.273435
51.858118
50.869033
47.968753
43.883741
39.426785
35.423669
32.545416
31.124553
31.058452
31.862107
32.854735
33.397570
33.080186
31.785952
29.631622
26.834790
23.586608
19.989240
16.072545
11.858002
7.416331
2.879649
-1.595064
-5.882014
-9.922357
-13.716471
-17.282138
-20.614431
-23.684726
-26.491531
-29.140757
-31.907481
-35.226594
-39.579910
-45.287716
-52.262108
-59.819856
-66.661319
-71.081636
-71.392722
-66.432166
-55.970679
-40.846809
-22.762231
-3.818679
14.009642
29.260846
41.113329
49.286307
53.849180
55.086064
53.478791
49.757679
44.905131
40.025910
36.094531
33.685278
32.821020
33.023996
33.547033
33.671903
32.937819
31.214792
28.624621
25.384015
21.665366
17.539458
13.006084
8.070354
2.809476
-2.606072
-7.942152
-12.961590
-17.486607
-21.440972
-24.865835
-27.916816
-30.852688
-34.016041
-37.790995
-42.514593
-48.330425
-55.010374
-61.816833
-67.501264
-70.506289
-69.355552
-63.114882
-51.747021
-36.202813
-18.196097
0.249729
17.295789
31.632015
42.574285
49.950973
53.910412
54.783704
53.059568
49.427327
44.786513
40.142699
36.390007
34.065221
33.193787
33.312925
33.672133
33.524857
32.383899
30.137600
26.995995
23.315916
19.403449
15.389261
11.223392
6.771830
1.950550
-3.177962
-8.393630
-13.392429
-17.902646
-21.787876
-25.096384
-28.049471
-30.990667
-34.323871
-38.448508
-43.673584
-50.088663
-57.401407
-64.804128
-70.967834
-74.243487
-73.067491
-66.456139
-54.396985
-37.958438
-19.048141
0.094650
17.469282
31.725940
42.290514
49.219342
52.920891
53.911647
52.709653
49.860697
46.007152
41.895555
38.273600
35.708291
34.414935
34.189863
34.490404
34.634060
34.033817
32.373346
29.658016
26.136897
22.147668
17.964411
13.715429
9.394386
4.939689
0.327877
-4.371824
-9.006419
-13.398014
-17.413823
-21.010718
-24.241502
-27.236755
-30.188196
-33.347885
-37.028439
-41.564301
-47.196903
-53.886224
-61.111848
-67.774134
-72.302586
-73.005638
-68.577828
-58.578785
-43.676564
-25.531095
-6.349550
11.705696
27.015905
38.733999
46.712239
51.244996
52.804552
51.902845
49.098985
45.067945
40.613723
36.562682
33.566765
31.916484
31.467803
31.727665
32.059121
31.909667
30.964727
29.175677
26.678313
23.666025
20.288910
16.619624
12.682695
8.511007
4.185936
-0.164121
-4.402071
-8.429379
-12.211042
-15.764037
-19.120686
-22.297104
-25.296758
-28.158676
-31.028388
-34.202100
-38.088316
-43.058383
-49.212713
-56.149716
-62.857236
-67.823085
-69.379174
-66.185369
-57.678530
-44.306403
-27.446868
-9.044797
8.883217
24.682519
37.291479
46.243520
51.522854
53.402615
52.358363
49.063713
44.398828
39.386129
35.017522
32.018479
30.652575
30.667122
31.416915
32.116414
32.110443
31.051782
28.927946
25.955991
22.421102
18.545083
14.435996
10.117020
5.593297
0.907703
-3.842603
-8.525913
-13.010398
-17.193114
-21.017384
-24.486860
-27.687454
-30.815151
-34.186311
-38.192971
-43.175923
-49.227139
-55.985449
-62.526857
-67.443849
-69.144414
-66.301745
-58.298734
-45.488350
-29.153602
-11.175675
6.455265
22.091444
34.682190
43.785048
49.408818
51.826044
51.465799
48.909222
44.921773
40.425418
36.357233
33.445568
32.003988
31.851204
32.407478
32.930562
32.786265
31.637129
29.480356
26.542986
23.107381
19.362551
15.349217
11.008013
6.285469
1.229093
-3.981999
-9.082800
-13.813134
-18.003767
-21.622014
-24.771408
-27.666477
-30.608619
-33.967538
-38.140991
-43.452680
-49.974862
-57.322516
-64.523816
-70.081709
-72.279522
-69.668435
-61.564743
-48.347784
-31.417827
-12.819586
5.312964
21.261256
33.990951
43.134479
48.781738
51.246379
50.942850
48.402511
44.348722
39.709152
35.488995
32.527273
31.244985
31.514398
32.724448
34.021408
34.619495
34.047590
32.237375
29.438948
26.028090
22.309101
18.403931
14.263403
9.771978
4.876659
-0.331451
-5.621697
-10.705159
-15.345277
-19.441355
-23.051121
-26.357001
-29.610406
-33.089916
-37.080667
-41.844764
-47.538707
-54.062357
-60.885865
-66.958886
-70.811206
-70.883249
-66.006682
-55.853560
-41.152323
-23.554284
-5.189341
11.905178
26.245930
37.090691
44.338816
48.273464
49.325482
47.979989
44.823241
40.622194
36.308197
32.808186
30.779793
30.385281
31.234966
32.546901
33.455597
33.326463
31.937378
29.465183
26.314382
22.893187
19.447273
16.011985
12.475758
8.698515
4.617149
0.292745
-4.107769
-8.372214
-12.312020
-15.813204
-18.860450
-21.541005
-24.041007
-26.639358
-29.688235
-33.555995
-38.510756
-44.550057
-51.227736
-57.568772
-62.162715
-63.468476
-60.264771
-52.088835
-39.478052
-23.894965
-7.350634
8.124395
20.949739
30.239066
35.778006
37.826596
36.899195
33.640912
28.819977
23.360076
18.306107
14.665921
13.164083
14.018774
16.861891
20.860599
25.001540
28.418859
30.626652
31.566586
31.473204
30.643675
29.235774
27.192141
24.315084
20.434896
15.569514
9.985106
4.125622
-1.548419
-6.725698
-11.333849
-15.523397
-19.576945
-23.805694
-28.479708
-33.791993
-39.815653
-46.414012
-53.114671
-59.024601
-62.888871
-63.348624
-59.349701
-50.550109
-37.540282
-21.757133
-5.112039
10.511840
23.683765
33.620446
40.133183
43.430912
43.926913
42.147245
38.738403
34.490635
30.282770
26.917193
24.903718
24.304031
24.730333
25.515026
25.977574
25.663527
24.448128
22.471139
19.958623
17.042041
13.676636
9.698497
4.979753
-0.414287
-6.163219
-11.768815
-16.740657
-20.803725
-24.031082
-26.840967
-29.858030
-33.690396
-38.695863
-44.803063
-51.433283
-57.548290
-61.828161
-62.954475
-59.938761
-52.405061
-40.731222
-25.992283
-9.720786
6.430856
21.007999
32.956241
41.679642
46.995460
49.057707
48.300342
45.400343
41.222434
36.707973
32.708594
29.812182
28.229510
27.789513
28.044153
28.437421
28.471138
27.811833
26.316957
23.994099
20.928323
17.215568
12.928692
8.124666
2.882267
-2.654328
-8.254959
-13.628285
-18.496084
-22.696502
-26.277082
-29.535237
-32.974709
-37.167117
-42.536425
-49.117642
-56.371617
-63.148890
-67.866828
-68.891677
-65.023237
-55.909575
-42.220250
-25.494365
-7.718705
9.189729
23.789310
35.273204
43.385637
48.217336
50.035348
49.237022
46.404498
42.352314
38.060511
34.466574
32.194225
31.356001
31.542296
32.016034
32.024587
31.081321
29.090085
26.272144
22.957907
19.369960
15.515272
11.232570
6.352168
0.867761
-4.980860
-10.762104
-16.016459
-20.447581
-24.051430
-27.131301
-30.201077
-33.821346
-38.422551
-44.151818
-50.761567
-57.556412
-63.426315
-66.998792
-66.918650
-62.207874
-52.598145
-38.704869
-21.952007
-4.252880
12.443437
26.575000
37.217763
44.111460
47.510876
47.974918
46.198579
42.930495
38.947175
35.019585
31.825059
29.811558
29.074265
29.319656
29.959559
30.314485
29.846037
28.318013
25.818300
22.641108
19.096574
15.348412
11.361604
6.980779
2.089413
-3.242831
-8.711705
-13.864827
-18.288784
-21.810310
-24.615296
-27.224724
-30.328202
-34.532640
-40.111743
-46.836293
-53.936174
-60.208190
-64.249075
-64.762480
-60.866662
-52.324311
-39.631049
-23.935737
-6.816673
10.017157
25.014261
36.993127
45.255797
49.615695
50.365701
48.202305
44.105405
39.170548
34.409541
30.564193
27.990640
26.652280
26.217178
26.214521
26.184999
25.771905
24.737607
22.930905
20.250596
16.640581
12.122188
6.839424
1.078705
-4.765910
-10.282579
-15.157494
-19.272599
-22.747987
-25.915339
-29.232979
-33.164205
-38.037954
-43.906478
-50.421258
-56.768237
-61.719121
-63.839654
-61.838982
-54.967577
-43.318749
-27.901208
-10.433496
7.072329
22.781792
35.394693
44.285887
49.436642
51.248797
50.354647
47.492356
43.447473
39.012546
34.915017
31.703205
29.630321
28.599908
28.215967
27.929934
27.225451
25.761629
23.418910
20.244936
16.350030
11.822477
6.711585
1.077689
-4.936326
-11.072071
-16.999374
-22.430458
-27.256391
-31.638716
-35.998604
-40.878241
-46.696190
-53.468697
-60.605356
-66.888890
-70.699096
-70.446361
-65.076987
-54.456227
-39.467759
-21.784699
-3.411843
13.804716
28.511265
39.938324
47.801205
52.143892
53.247576
51.634339
48.098041
43.658577
39.383987
36.121964
34.260669
33.643566
33.689622
33.664601
32.973904
31.344520
28.829292
25.660294
22.050787
18.060375
13.590821
8.500793
2.762104
-3.438941
-9.718888
-15.632045
-20.858492
-25.353996
-29.392929
-33.486894
-38.210508
-43.990050
-50.909272
-58.575035
-66.078165
-72.081347
-75.050961
-73.609107
-66.922853
-55.003481
-38.794985
-19.999268
-0.689029
17.154573
32.020492
43.055711
50.049628
53.286128
53.366245
51.074578
47.299829
42.969515
38.952745
35.920854
34.205409
33.721912
34.012575
34.409381
34.260442
33.130652
30.898821
27.722479
23.901751
19.715042
15.303827
10.652406
5.659932
0.260220
-5.474074
-11.297065
-16.846948
-21.776771
-25.908563
-29.348098
-32.507981
-36.015754
-40.519195
-46.433471
-53.699357
-61.633690
-68.945016
-73.951174
-74.970511
-70.783922
-61.016556
-46.298134
-28.136405
-8.550126
10.398279
27.002542
40.129675
49.241026
54.292488
55.615456
53.840101
49.851485
44.720179
39.557610
35.303873
32.518353
31.265882
31.157457
31.534410
31.717895
31.219094
29.833453
27.604779
24.705041
21.304557
17.495954
13.295355
8.700335
3.759138
-1.391341
-6.538235
-11.447161
-15.930446
-19.900255
-23.392990
-26.569401
-29.702146
-33.153136
-37.322699
-42.541457
-48.895224
-56.024100
-62.991899
-68.337228
-70.363074
-67.611121
-59.356471
-45.916469
-28.630953
-9.515078
9.267442
25.893736
39.161322
48.512306
53.887860
55.558235
54.035258
50.073569
44.676729
39.007099
34.164689
30.901765
29.406515
29.276255
29.713031
29.859949
29.122025
27.325684
24.659460
21.453656
17.935417
14.096674
9.739090
4.656439
-1.160537
-7.419401
-13.585119
-19.079012
-23.523339
-26.916473
-29.659415
-32.423913
-35.915867
-40.617010
-46.581333
-53.334905
-59.898011
-64.929589
-66.979874
-64.814882
-57.745153
-45.866186
-30.121283
-12.143070
6.092236
22.689370
36.198702
45.814392
51.377709
53.238758
52.070342
48.712291
44.071744
39.053176
34.476286
30.965407
28.836267
28.032691
28.158113
28.608061
28.761249
28.156633
26.589928
24.101358
20.875547
17.110194
12.917726
8.302890
3.219913
-2.326221
-8.191551
-14.070769
-19.564965
-24.322357
-28.198602
-31.368009
-34.327928
-37.771127
-42.345745
-48.366742
-55.572651
-63.024531
-69.213373
-72.380523
-70.977922
-64.129233
-51.931839
-35.483797
-16.619901
2.544575
20.091401
34.634259
45.428786
52.288249
55.416814
55.277037
52.540562
48.083782
42.944131
38.176144
34.622422
32.690604
32.249928
32.712208
33.271103
33.195384
32.050890
29.769580
26.564428
22.758552
18.621257
14.280255
9.729745
4.907033
-0.213196
-5.553605
-10.922254
-16.053374
-20.683197
-24.636105
-27.897383
-30.653639
-33.286917
-36.312579
-40.255086
-45.466065
-51.914403
-59.013534
-65.574858
-69.963569
-70.469204
-65.803751
-55.555659
-40.413070
-22.045890
-2.677049
15.489725
30.760486
42.191796
49.550429
53.095841
53.347410
50.955257
46.687151
41.450383
36.245178
32.002860
29.354733
28.442993
28.881382
29.904637
30.652382
30.466946
29.079901
26.619023
23.454103
19.971235
16.388407
12.694265
8.723832
4.315209
-0.543819
-5.656811
-10.673809
-15.226733
-19.074857
-22.194472
-24.783510
-27.196626
-29.852528
-33.149211
-37.392292
-42.713603
-48.959240
-55.565657
-61.494708
-65.319293
-65.509244
-60.870253
-50.985585
-36.467531
-18.883629
-0.363306
16.960245
31.445241
42.191361
48.999689
52.144650
52.130242
49.561626
45.149090
39.754400
34.359528
29.900241
27.014957
25.837697
25.960650
26.607935
26.948286
26.399030
24.781671
22.272923
19.203057
15.826132
12.188584
8.156783
3.570319
-1.580055
-7.058684
-12.432640
-17.238683
-21.186191
-24.299508
-26.937789
-29.687307
-33.167975
-37.814002
-43.682633
-50.333244
-56.813166
-61.779218
-63.758891
-61.507582
-54.366605
-42.502108
-26.930535
-9.311106
8.422863
24.463442
37.433595
46.535190
51.552268
52.768577
50.856184
46.757304
41.549211
36.280903
31.797739
28.599946
26.786561
26.108644
26.108112
26.281497
26.203859
25.577628
24.215117
21.995137
18.837024
14.712205
9.682295
3.932737
-2.228297
-8.417861
-14.261605
-19.485635
-23.988177
-27.872398
-31.435145
-35.112334
-39.378353
-44.595768
-50.827224
-57.655709
-64.094483
-68.674388
-69.749601
-65.967549
-56.748887
-42.580237
-24.974243
-6.086275
11.867186
27.151708
38.811329
46.644705
50.949835
52.223544
50.984340
47.774502
43.265083
38.320357
33.912128
30.881069
29.653640
30.070517
31.435934
32.784165
33.245851
32.346347
30.105648
26.911211
23.246098
19.419726
15.436322
11.056106
6.000991
0.184817
-6.158124
-12.514946
-18.285287
-23.025864
-26.631883
-29.378845
-31.822361
-34.617399
-38.335764
-43.328917
-49.634479
-56.900647
-64.323939
-70.645783
-74.284824
-73.651038
-67.595610
-55.847903
-39.246297
-19.626901
0.621317
19.170571
34.295878
45.147908
51.701841
54.482379
54.246104
51.773746
47.818833
43.148279
38.563297
34.823917
32.483034
31.710861
32.213320
33.308006
34.144436
33.984220
32.428710
29.507483
25.602450
21.249713
16.907736
12.788548
8.818132
4.735720
0.279856
-4.630677
-9.810739
-14.862335
-19.343554
-22.970230
-25.753584
-28.014602
-30.280648
-33.122924
-37.003319
-42.165060
-48.555868
-55.755957
-62.913454
-68.744140
-71.677811
-70.189990
-63.255881
-50.763368
-33.694845
-13.965514
6.044320
24.084420
38.526005
48.582946
54.239279
55.995611
54.600904
50.889373
45.738430
40.074465
34.831451
30.816759
28.519813
27.959210
28.664375
29.827108
30.574188
30.252452
28.610667
25.809574
22.268977
18.432191
14.560693
10.650465
6.499020
1.879190
-3.274182
-8.762475
-14.161280
-18.983750
-22.892709
-25.862361
-28.217176
-30.534705
-33.458238
-37.491375
-42.831709
-49.267800
-56.141766
-62.382840
-66.632316
-67.478099
-63.780412
-55.011837
-41.492931
-24.416173
-5.623006
12.800451
28.968644
41.535977
49.845598
53.893578
54.181839
51.545757
47.006519
41.649209
36.500835
32.392208
29.820505
28.857912
29.154403
30.054854
30.804098
30.771469
29.613344
27.316780
24.117543
20.338743
16.228170
11.867757
7.189947
2.082727
-3.476641
-9.330928
-15.145362
-20.509358
-25.098914
-28.834446
-31.967806
-35.053736
-38.795436
-43.791512
-50.248090
-57.748739
-65.182045
-70.895608
-73.073397
-70.241320
-61.734004
-47.947646
-30.276066
-10.752900
8.456625
25.518362
39.194660
48.874461
54.446971
56.150913
54.496406
50.265649
44.515640
38.487563
33.385787
30.084130
28.885004
29.453199
30.969798
32.446647
33.066560
32.408589
30.481705
27.586414
24.098436
20.286288
16.236496
11.894090
7.170461
2.050904
-3.350256
-8.804128
-14.034447
-18.803679
-22.986843
-26.615734
-29.891670
-33.171366
-36.923223
-41.638891
-47.682776
-55.084746
-63.329396
-71.243751
-77.094180
-78.943251
-75.198853
-65.169185
-49.392566
-29.581172
-8.180162
12.282747
29.793721
43.178740
52.094630
56.787416
57.807048
55.834157
51.655932
46.208734
40.561974
35.770660
32.628462
31.436792
31.916573
33.323592
34.725217
35.316976
34.645708
32.661908
29.612429
25.856330
21.704512
17.347259
12.872459
8.328143
3.771225
-0.729639
-5.126922
-9.423347
-13.661758
-17.873447
-22.019678
-25.976208
-29.592029
-32.810042
-35.792346
-38.969728
-42.950540
-48.279050
-55.107985
-62.913111
-70.395415
-75.668440
-76.721755
-72.025800
-61.060634
-44.560294
-24.369504
-2.965798
17.166125
34.075568
46.633123
54.527576
58.064981
57.920156
54.956659
50.142078
44.504929
39.057375
34.650954
31.803329
30.581214
30.614497
31.253210
31.803434
31.738109
30.798043
28.963882
26.348401
23.089022
19.300380
15.093865
10.621910
6.091568
1.721268
-2.336536
-6.053048
-9.516645
-12.859760
-16.162564
-19.395761
-22.443366
-25.199168
-27.687280
-30.140983
-32.990352
-36.746352
-41.807095
-48.237915
-55.591965
-62.842936
-68.487043
-70.829708
-68.407143
-60.424549
-47.056742
-29.487158
-9.656171
10.193544
28.007705
42.280985
52.200380
57.594543
58.788017
56.461616
51.561311
45.227706
38.687430
33.074806
29.212524
27.429741
27.500673
28.742146
30.241793
31.135176
30.833909
29.133430
26.182485
22.348927
18.046647
13.590488
9.124509
4.635326
0.030360
-4.759438
-9.697379
-14.613273
-19.242455
-23.319667
-26.696106
-29.438538
-31.871055
-34.531298
-38.032413
-42.848406
-49.071590
-56.219298
-63.178021
-68.350220
-70.006593
-66.760525
-58.010559
-44.184105
-26.679197
-7.518848
11.149069
27.516215
40.388684
49.226445
54.016956
55.109345
53.106700
48.830876
43.299210
37.634996
32.882364
29.774231
28.552751
28.931672
30.226800
31.601990
32.328973
31.964139
30.393888
27.761312
24.331027
20.359377
16.017158
11.378906
6.464186
1.300076
-4.027660
-9.356450
-14.467443
-19.135698
-23.192990
-26.586603
-29.422832
-31.987505
-34.732335
-38.208264
-42.926434
-49.147077
-56.641578
-64.524917
-71.274570
-75.005746
-73.965831
-67.092490
-54.417376
-37.136789
-17.305918
2.720452
20.870353
35.739250
46.674712
53.616024
56.848015
56.826908
54.142963
49.568621
44.078306
38.750423
34.548714
32.070392
31.384531
32.045647
33.281376
34.269969
34.387979
33.336199
31.121161
27.938272
24.034463
19.614923
14.818590
9.746178
4.502780
-0.778022
-5.940259
-10.832402
-15.336281
-19.384434
-22.965170
-26.125920
-28.986357
-31.761323
-34.775991
-38.442037
-43.162897
-49.158701
-56.248877
-63.681574
-70.118903
-73.850605
-73.218283
-67.124457
-55.434461
-39.100800
-19.948338
-0.203261
18.044831
33.246819
44.550483
51.728002
54.992374
54.835532
51.954585
47.238588
41.733113
36.515948
32.487387
30.153183
29.505918
30.071908
31.110933
31.882461
31.865620
30.852755
28.905328
26.225371
23.022760
19.440027
15.549796
11.396560
7.038609
2.560666
-1.942308
-6.386384
-10.701027
-14.809964
-18.612315
-21.994025
-24.884890
-27.346410
-29.647150
-32.270715
-35.815996
-40.788701
-47.334301
-55.006520
-62.680697
-68.691402
-71.199594
-68.698394
-60.489743
-46.952193
-29.490123
-10.180474
8.744814
25.386317
38.477166
47.444011
52.291313
53.429186
51.541743
47.518450
42.401621
37.284360
33.133656
30.580383
29.764206
30.316780
31.510080
32.518448
32.687925
31.704932
29.607468
26.658010
23.158141
19.300567
15.122117
10.562138
5.576232
0.234059
-5.251761
-10.576540
-15.443499
-19.662558
-23.208158
-26.225258
-28.998861
-31.909260
-35.379149
-39.794651
-45.376386
-52.005838
-59.064655
-65.384760
-69.398414
-69.503949
-64.551423
-54.265482
-39.419120
-21.667257
-3.100553
14.293609
29.044768
40.352037
47.987090
52.079665
52.945374
51.044856
47.046361
41.877863
36.655007
32.454633
30.013224
29.494437
30.450980
32.013368
33.224878
33.373283
32.180561
29.789400
26.585419
22.963778
19.155951
15.183145
10.931236
6.285308
1.244043
-4.041503
-9.313553
-14.304902
-18.836494
-22.873274
-26.525366
-30.012333
-33.620861
-37.671386
-42.478036
-48.265122
-55.016621
-62.288235
-69.077205
-73.871469
-74.949170
-70.881418
-61.063878
-46.044772
-27.478445
-7.695985
10.936712
26.607744
38.371383
46.112966
50.268390
51.493878
50.453547
47.777337
44.120893
40.205276
36.752366
34.324362
33.155317
33.079221
33.607314
34.123838
34.106747
33.272542
31.592033
29.196207
26.245580
22.842472
19.026057
14.833554
10.370200
5.829239
1.441665
-2.614732
-6.289470
-9.668409
-12.909225
-16.139885
-19.379880
-22.532874
-25.461699
-28.113216
-30.633158
-33.409447
-37.002527
-41.955798
-48.524815
-56.410996
-64.614396
-71.508005
-75.169419
-73.898979
-66.754650
-53.899551
-36.617680
-16.986913
2.658189
20.263019
34.405184
44.389979
50.144311
52.035775
50.726954
47.097086
42.185960
37.091007
32.789783
29.932944
28.700913
28.805047
29.647615
30.573410
31.099019
31.021625
30.376561
29.292160
27.837771
25.952236
23.485711
20.320404
16.492870
12.243950
7.965100
4.065345
0.822686
-1.711594
-3.715736
-5.511130
-7.428947
-9.687938
-12.330572
-15.236222
-18.197838
-21.026146
-23.642577
-26.135953
-28.774273
-31.969099
-36.185079
-41.785557
-48.824273
-56.835232
-64.717206
-70.817797
-73.265394
-70.487483
-61.743237
-47.453554
-29.173099
-9.196487
10.048635
26.580663
39.206256
47.548359
51.837210
52.632827
50.631289
46.607263
41.434210
36.073754
31.461449
28.305136
26.891884
27.016816
28.090145
29.382270
30.290938
30.505836
30.006751
28.923504
27.357490
25.276327
22.540749
19.039120
14.838749
10.252307
5.766840
1.861325
-1.196950
-3.470372
-5.318132
-7.225356
-9.578491
-12.497202
-15.802083
-19.129724
-22.137388
-24.701430
-27.022419
-29.595635
-33.058952
-37.966025
-44.546050
-52.511035
-60.967260
-68.478292
-73.301039
-73.768170
-68.730169
-57.924140
-42.135378
-23.076940
-3.013016
15.751745
31.348496
42.644048
49.307313
51.681691
50.561455
46.970625
41.997685
36.683716
31.931712
28.412805
26.475730
26.094697
26.896080
28.278115
29.594711
30.340605
30.270018
29.407713
27.956864
26.151654
24.124986
21.852169
19.193694
16.011852
12.299342
8.250509
4.232088
0.658882
-2.172698
-4.217308
-5.715873
-7.110777
-8.871181
-11.300815
-14.412624
-17.929615
-21.418642
-24.505395
-27.080635
-29.407464
-32.076430
-35.810647
-41.175358
-48.280952
-56.577695
-64.824129
-71.271301
-74.043784
-71.628017
-63.323229
-49.499888
-31.564809
-11.636214
7.958857
25.188533
38.660199
47.730772
52.417844
53.214553
50.909939
46.462688
40.913497
35.291915
30.490942
27.127212
25.438615
25.268765
26.153156
27.477843
28.652699
29.243000
29.029244
27.995369
26.267037
24.029781
21.453486
18.643411
15.631178
12.408054
8.987345
5.466172
2.048822
-0.993901
-3.423372
-5.148873
-6.300696
-7.213111
-8.310673
-9.940852
-12.227904
-15.020019
-17.962140
-20.668826
-22.925200
-24.831218
-26.827673
-29.586221
-33.788475
-39.849966
-47.664159
-56.449229
-64.770681
-70.776803
-72.617947
-68.943039
-59.314217
-44.388178
-25.789831
-5.721045
13.550552
30.143427
42.824689
51.054495
54.877964
54.769378
51.506273
46.086436
39.646639
33.334902
28.128836
24.648441
23.041902
23.004719
23.934321
25.158280
26.141876
26.596597
26.464611
25.815150
24.724286
23.203282
21.201843
18.667971
15.619805
12.186213
8.595569
5.119838
1.998859
-0.627421
-2.758153
-4.531534
-6.184661
-7.981842
-10.129421
-12.703114
-15.615695
-18.644461
-21.519228
-24.047856
-26.237469
-28.363498
-30.947278
-34.623544
-39.909249
-46.924124
-55.153195
-63.361193
-69.744619
-72.330648
-69.525835
-60.631628
-46.127694
-27.600942
-7.341649
12.234301
29.117741
42.019513
50.414632
54.395936
54.476830
51.450246
46.320516
40.246654
34.422085
29.870882
27.221528
26.565428
27.483579
29.244006
31.083432
32.443325
33.060820
32.900483
32.000212
30.342413
27.831518
24.382910
20.053596
15.117444
10.023116
5.245187
1.103455
-2.354104
-5.342770
-8.212069
-11.264854
-14.617124
-18.164305
-21.660705
-24.862553
-27.661839
-30.155517
-32.634965
-35.515659
-39.234686
-44.127019
-50.278390
-57.367334
-64.547513
-70.453256
-73.399695
-71.779234
-64.553745
-51.663784
-34.176088
-14.082999
6.187041
24.365640
38.828420
48.814050
54.355999
56.027394
54.652383
51.105360
46.234375
40.862279
35.784170
31.704030
29.112956
28.166404
28.635150
29.974574
31.497880
32.584771
32.838389
32.130594
30.533184
28.188836
25.200930
21.602285
17.410542
12.722802
7.775683
2.915844
-1.518438
-5.344399
-8.624554
-11.637998
-14.735609
-18.149145
-21.857214
-25.588071
-28.970424
-31.765524
-34.067805
-36.368240
-39.428806
-43.992059
-50.416700
-58.369302
-66.701887
-73.597148
-76.976266
-75.064094
-66.930673
-52.816419
-34.118103
-13.040662
7.950893
26.677816
41.617900
52.025987
57.845631
59.522227
57.822983
53.708540
48.238146
42.466347
37.310903
33.415248
31.056768
30.142887
30.298869
31.009810
31.759735
32.123432
31.800164
30.609090
28.475834
25.427495
21.592384
17.186251
12.469429
7.679315
2.966088
-1.632704
-6.159408
-10.658993
-15.099529
-19.338033
-23.158035
-26.368141
-28.917691
-30.975919
-32.938121
-35.350892
-38.771262
-43.584608
-49.812422
-56.955351
-63.935249
-69.200723
-71.023565
-67.938693
-59.199136
-45.078846
-26.893905
-6.718557
13.104037
30.479067
43.935782
52.774673
57.005279
57.165943
54.126272
48.930497
42.683800
36.451526
31.145927
27.403969
25.488223
25.251886
26.194473
27.604059
28.748680
29.059102
28.247473
26.329895
23.554231
20.265361
16.758749
13.173844
9.463449
5.449188
0.941837
-4.122915
-9.595124
-15.115752
-20.226084
-24.543432
-27.931391
-30.591763
-33.035651
-35.936150
-39.904454
-45.251344
-51.797101
-58.784116
-64.933251
-68.661687
-68.437417
-63.189065
-52.646223
-37.486609
-19.224954
0.124534
18.492127
34.151484
45.961457
53.422785
56.601825
56.005295
52.464580
47.036192
40.886889
35.134444
30.655555
27.917768
26.906848
27.190658
28.100991
28.960797
29.266637
28.763035
27.401033
25.227707
22.278590
18.530315
13.929914
8.474664
2.292374
-4.325172
-10.958121
-17.154565
-22.554491
-27.002737
-30.617889
-33.795132
-37.130974
-41.267639
-46.672453
-53.395209
-60.877595
-67.907050
-72.788178
-73.735098
-69.388749
-59.282591
-44.068731
-25.397592
-5.487154
13.448829
29.690001
42.248105
50.823033
55.581730
56.927529
55.385038
51.615324
46.472783
40.983994
36.185778
32.863137
31.310299
31.247690
31.955624
32.573467
32.427078
31.233846
29.100064
26.334281
23.192219
19.696329
15.625130
10.671200
4.675438
-2.193821
-9.419530
-16.295142
-22.195537
-26.835098
-30.395462
-33.469562
-36.853184
-41.272277
-47.138729
-54.391194
-62.434275
-70.169990
-76.124869
-78.687207
-76.449516
-68.595753
-55.213983
-37.400272
-17.076150
3.446337
22.005715
37.042279
47.808762
54.307176
57.041470
56.738305
54.163604
50.074344
45.251609
40.516164
36.651954
34.235933
33.449379
33.981057
35.101884
35.907556
35.636179
33.922618
30.875150
26.943746
22.651595
18.327587
13.971763
9.313214
4.021046
-2.046747
-8.689412
-15.387986
-21.501073
-26.540654
-30.399607
-33.428390
-36.330087
-39.919517
-44.836214
-51.299712
-58.963807
-66.894434
-73.679413
-77.668582
-77.321396
-71.598482
-60.290516
-44.165808
-24.860894
-4.528691
14.644001
30.886553
43.121959
51.014882
54.832379
55.222352
53.014018
49.093289
44.342977
39.600773
35.592718
32.835472
31.538737
31.556109
32.420811
33.469054
34.017106
33.537323
31.779250
28.801685
24.911332
20.532569
16.053483
11.701121
7.490600
3.267338
-1.174713
-5.949994
-10.980689
-15.991445
-20.609479
-24.529082
-27.667564
-30.243674
-32.744772
-35.794152
-39.961394
-45.564335
-52.500790
-60.142690
-67.331410
-72.514373
-74.038052
-70.555167
-61.435783
-47.034761
-28.696569
-8.472630
11.355651
28.776320
42.401678
51.592886
56.378679
57.269744
55.075658
50.775795
45.428976
40.075652
35.604240
32.599198
31.226433
31.214589
31.956667
32.705216
32.794117
31.810566
29.663190
26.534288
22.748306
18.616457
14.319648
9.872040
5.173958
0.125169
-5.257411
-10.776496
-16.081938
-20.786087
-24.624364
-27.595524
-30.020169
-32.485694
-35.686616
-40.201022
-46.259005
-53.563683
-61.223103
-67.837367
-71.753267
-71.447059
-65.938209
-55.101940
-39.764484
-21.535707
-2.432558
15.571999
30.920179
42.658534
50.435375
54.377798
54.947667
52.841283
48.931718
44.205393
39.644942
36.055274
33.886337
33.133146
33.371830
33.931095
34.132897
33.501663
31.859179
29.281408
25.961133
22.061060
17.635537
12.652820
7.091320
1.042831
-5.244515
-11.413030
-17.111777
-22.128180
-26.477004
-30.413796
-34.374949
-38.867615
-44.330738
-50.977192
-58.629783
-66.590260
-73.612472
-78.054870
-78.237289
-72.929368
-61.802894
-45.652088
-26.259330
-5.935006
13.088894
29.167170
41.467554
49.881201
54.739353
56.529677
55.759186
52.984287
48.907534
44.401975
40.384265
37.570008
36.235382
36.121838
36.550433
36.702735
35.938803
34.006710
31.056869
27.472606
23.616111
19.623970
15.353757
10.501917
4.825017
-1.656047
-8.580390
-15.345649
-21.338514
-26.190611
-29.942909
-33.048907
-36.223858
-40.209147
-45.535932
-52.344632
-60.278598
-68.454181
-75.521764
-79.848368
-79.837104
-74.340210
-63.048998
-46.706804
-27.027913
-6.314812
13.102589
29.401313
41.584006
49.497453
53.604966
54.663449
53.463088
50.713883
47.061950
43.148908
39.620425
37.039896
35.737439
35.678039
36.435063
37.307998
37.551933
36.627240
34.362261
30.959578
26.849292
22.463806
18.043706
13.567375
8.833070
3.642386
-2.018364
-7.900210
-13.563335
-18.564836
-22.667311
-25.964860
-28.869998
-31.976840
-35.871094
-40.965142
-47.396010
-54.971225
-63.128261
-70.903207
-76.956493
-79.729307
-77.766251
-70.145414
-56.863051
-38.993294
-18.515179
2.157631
20.771549
35.725578
46.294589
52.551678
55.090566
54.712328
52.213330
48.320538
43.726469
39.130894
35.213725
32.522047
31.317999
31.469593
32.456221
33.511815
33.864895
32.985558
30.739685
27.386513
23.422293
19.341103
15.421708
11.636676
7.722210
3.369427
-1.563536
-6.930010
-12.327505
-17.267653
-21.397656
-24.666054
-27.359918
-30.008837
-33.211881
-37.461911
-43.013786
-49.798090
-57.358941
-64.813912
-70.878189
-74.018446
-72.768102
-66.148954
-54.054481
-37.422135
-18.087482
1.652524
19.606333
34.167557
44.543618
50.699382
53.114087
52.511431
49.687514
45.464254
40.703649
36.285792
32.994403
31.334411
31.370153
32.681273
34.483094
35.877866
36.138777
34.913908
32.275635
28.610792
24.413121
20.071842
15.740551
11.330076
6.616063
1.406154
-4.311114
-10.303926
-16.152754
-21.406201
-25.775107
-29.282384
-32.301479
-35.461464
-39.448777
-44.769977
-51.544430
-59.376907
-67.336529
-74.053958
-77.939276
-77.503580
-71.730638
-60.403072
-44.268165
-24.957222
-4.652328
14.404876
30.398657
42.259344
49.734816
53.237151
53.571152
51.670798
48.426378
44.615019
40.891994
37.785686
35.664037
34.680390
34.734266
35.482765
36.414924
36.972490
36.681302
35.253932
32.636599
28.993759
24.640922
19.946571
15.229548
10.680241
6.330254
2.082105
-2.210918
-6.646922
-11.204441
-15.735156
-20.027462
-23.912286
-27.362132
-30.540830
-33.787924
-37.549196
-42.275752
-48.302635
-55.703059
-64.125189
-72.659397
-79.826088
-83.773779
-82.706180
-75.436167
-61.862125
-43.149895
-21.507058
0.387137
20.075079
35.865975
47.047326
53.748965
56.605063
56.419055
53.976872
50.027749
45.342579
40.729774
36.943899
34.515086
33.593840
33.907896
34.869424
35.790656
36.111697
35.543106
34.074139
31.866524
29.105726
25.892502
22.226302
18.077772
13.497656
8.688768
3.987411
-0.249576
-3.800497
-6.694052
-9.214068
-11.777389
-14.736012
-18.200480
-21.978147
-25.665985
-28.861017
-31.392775
-33.471054
-35.679884
-38.810188
-43.578317
-50.309893
-58.680167
-67.600005
-75.317264
-79.754677
-79.026417
-71.990283
-58.644592
-40.209503
-18.844974
2.895553
22.669798
38.795124
50.419998
57.436608
60.257225
59.595088
56.327812
51.431279
45.918739
40.732897
36.595797
33.875318
32.539154
32.229438
32.428754
32.641803
32.514465
31.853612
30.569619
28.603139
25.895790
22.424613
18.270062
13.659693
8.940601
4.476745
0.516396
-2.901533
-5.950234
-8.921492
-12.080446
-15.538909
-19.206649
-22.840682
-26.166863
-29.019153
-31.441087
-33.715671
-36.315624
-39.781134
-44.539339
-50.690953
-57.813700
-64.861202
-70.242999
-72.129748
-68.937728
-59.847064
-45.156170
-26.312649
-5.583523
14.520564
31.849336
45.028264
53.571369
57.722291
58.162000
55.740798
51.328679
45.781965
39.954390
34.671927
30.636114
28.282800
27.664216
28.422900
29.887727
31.267022
31.870665
31.281249
29.417060
26.474930
22.788720
18.669418
14.294500
9.687515
4.785005
-0.452180
-5.943779
-11.460651
-16.676076
-21.273381
-25.061293
-28.049802
-30.462275
-32.690066
-35.214772
-38.518899
-42.985678
-48.774040
-55.668208
-62.944154
-69.335768
-73.184672
-72.799720
-66.948308
-55.307606
-38.683277
-18.880313
1.743539
20.870402
36.732137
48.365005
55.572076
58.693347
58.347348
55.272123
50.292370
44.342918
38.445734
33.579949
30.467458
29.367726
29.991608
31.595048
33.228171
34.042112
33.531805
31.625924
28.605364
24.904453
20.892558
16.731782
12.362941
7.609796
2.339546
-3.402885
-9.352112
-15.091557
-20.202735
-24.427368
-27.773212
-30.524808
-33.165939
-36.254607
-40.293067
-45.609484
-52.242912
-59.825961
-67.493449
-73.886247
-77.326025
-76.182530
-69.355096
-56.699053
-39.208636
-18.847622
1.933167
20.811674
36.108666
47.025488
53.571377
56.286815
55.935081
53.301106
49.138313
44.205125
39.290188
35.153484
32.382076
31.226451
31.507818
32.658659
33.896624
34.469184
33.873783
31.969608
28.946417
25.177895
21.032737
16.728391
12.287038
7.602263
2.571679
-2.778843
-8.246136
-13.501816
-18.219064
-22.210996
-25.514614
-28.386649
-31.225404
-34.464903
-38.484717
-43.544424
-49.714676
-56.774545
-64.087615
-70.529658
-74.569382
-74.563212
-69.220683
-58.082836
-41.805980
-22.101005
-1.324526
18.123181
34.355487
46.311995
53.759599
57.064642
56.903200
54.057856
49.352717
43.673006
37.965530
33.143691
29.900177
28.508172
28.720244
29.838316
30.948501
31.233569
30.235825
27.963625
24.804115
21.289623
17.827880
14.519481
11.142894
7.307423
2.695055
-2.729901
-8.648007
-14.486007
-19.644651
-23.745444
-26.785266
-29.139911
-31.430678
-34.321268
-38.321014
-43.638686
-50.091408
-57.059425
-63.495526
-68.024441
-69.167030
-65.679765
-56.930189
-43.175620
-25.617410
-6.179397
12.926670
29.695183
42.708828
51.300984
55.497807
55.829474
53.126064
48.370968
42.612260
36.882786
32.083384
28.831034
27.326399
27.313909
28.177007
29.147853
29.552255
28.991227
27.390125
24.909158
21.773620
18.115508
13.905423
9.004532
3.304235
-3.124914
-9.960503
-16.681339
-22.734938
-27.751786
-31.713423
-34.997415
-38.269669
-42.250363
-47.422902
-53.775572
-60.662460
-66.844957
-70.728865
-70.751028
-65.810064
-55.604925
-40.764924
-22.724901
-3.393193
15.263615
31.577094
44.382417
53.065022
57.508186
58.017965
55.266020
50.234451
44.114994
38.131061
33.302741
30.227489
28.966017
29.088561
29.868167
30.542987
30.543399
29.602772
27.728416
25.073430
21.789109
17.933711
13.473894
8.363065
2.642635
-3.494614
-9.715235
-15.626550
-20.893005
-25.341322
-29.020948
-32.210056
-35.373644
-39.078576
-43.859337
-50.029373
-57.462191
-65.415238
-72.502681
-76.902101
-76.794741
-70.921640
-59.050213
-42.148732
-22.175658
-1.557456
17.434105
33.161350
44.803485
52.248350
55.832509
56.106089
53.729356
49.487429
44.320377
39.262124
35.256188
32.914224
32.338661
33.109790
34.457183
35.543509
35.737153
34.764288
32.697275
29.814501
26.417885
22.698028
18.697085
14.361325
9.633215
4.526285
-0.850591
-6.318992
-11.681585
-16.767782
-21.459114
-25.700010
-29.511173
-33.017118
-36.478675
-40.297134
-44.946778
-50.810141
-57.937524
-65.812980
-73.248781
-78.514777
-79.727884
-75.406905
-64.996439
-49.142662
-29.589853
-8.725978
11.041566
27.834111
40.586090
49.022260
53.429421
54.392771
52.629833
48.948287
44.255088
39.515594
35.612352
33.142040
32.253193
32.624275
33.613046
34.515933
34.815863
34.305481
33.044085
31.197759
28.870567
26.028205
22.550118
18.363801
13.565836
8.445383
3.389084
-1.279105
-5.429940
-9.156372
-12.681615
-16.202131
-19.756060
-23.192349
-26.260039
-28.772778
-30.765853
-32.568255
-34.751496
-37.965218
-42.704987
-49.073749
-56.602126
-64.191109
-70.228623
-72.895086
-70.608914
-62.492655
-48.702111
-30.485222
-9.927585
10.536859
28.678876
42.904920
52.448543
57.316928
58.082539
55.641859
51.027230
45.290152
39.423117
34.278476
30.471232
28.290189
27.659739
28.181779
29.253873
30.227170
30.553618
29.882326
28.090608
25.259785
21.616221
17.455994
13.067061
8.662716
4.343838
0.105974
-4.107010
-8.324037
-12.482804
-16.419844
-19.928305
-22.859928
-25.220930
-27.212453
-29.196428
-31.606053
-34.838837
-39.158521
-44.605738
-50.905840
-57.384293
-62.941207
-66.156872
-65.567254
-60.067053
-49.309590
-33.934812
-15.506476
3.839416
21.905922
36.913088
47.781987
54.172265
56.336515
54.913581
50.764195
44.881846
38.340613
32.215711
27.441646
24.630345
23.919387
24.929982
26.877744
28.813297
29.908988
29.683548
28.080173
25.375986
21.975757
18.193633
14.126877
9.674585
4.678741
-0.896451
-6.848694
-12.752434
-18.103523
-22.527814
-25.958064
-28.700265
-31.361252
-34.664569
-39.213621
-45.264719
-52.561435
-60.271901
-67.063129
-71.327406
-71.535552
-66.638224
-56.394438
-41.506917
-23.501796
-4.386194
13.796929
29.365585
41.233915
48.956734
52.635598
52.773775
50.148074
45.714739
40.522616
35.598067
31.793121
29.628830
29.191033
30.128297
31.766647
33.311047
34.068572
33.618231
31.873750
29.027854
25.411504
21.332114
16.958781
12.298117
7.261742
1.785386
-4.061937
-10.034456
-15.757400
-20.850799
-25.081187
-28.480832
-31.386684
-34.379855
-38.135591
-43.214025
-49.834623
-57.688207
-65.850396
-72.855968
-76.960501
-76.552933
-70.609537
-59.035743
-42.762637
-23.550474
-3.566616
15.106836
30.866077
42.773055
50.534317
54.354058
54.768518
52.528900
48.533412
43.762544
39.172766
35.546045
33.340548
32.606765
33.012426
33.972461
34.834393
35.051155
34.288768
32.451795
29.643659
26.093874
22.078576
17.847771
13.566392
9.279907
4.919833
0.358684
-4.496893
-9.613305
-14.789180
-19.702297
-24.038686
-27.652072
-30.678833
-33.549251
-36.880545
-41.283830
-47.141788
-54.412675
-62.506018
-70.270965
-76.132397
-78.384829
-75.602923
-67.063418
-53.032432
-34.794186
-14.387840
5.863190
23.862205
38.120762
47.917961
53.250572
54.660254
53.033022
49.423744
44.907993
40.444252
36.746281
34.193682
32.817674
32.375083
32.481848
32.747978
32.859757
32.590631
31.766202
30.232772
27.867394
24.630192
20.623480
16.109101
11.454064
7.016557
3.022770
-0.504325
-3.725823
-6.884939
-10.173575
-13.634082
-17.142849
-20.480290
-23.451096
-25.999278
-28.272204
-30.616201
-33.511620
-37.461782
-42.842645
-49.719708
-57.662429
-65.626163
-71.996305
-74.863305
-72.508074
-63.960080
-49.414093
-30.312203
-9.023361
11.771631
29.751070
43.427528
52.284821
56.601934
57.120758
54.743958
50.375933
44.901602
39.211069
34.170075
30.497440
28.592962
28.410305
29.459549
30.961053
32.095955
32.251972
31.168127
28.932578
25.854881
22.284346
18.460049
14.452795
10.208045
5.649732
0.781928
-4.265369
-9.265822
-13.979903
-18.244417
-22.023524
-25.402585
-28.541490
-31.627487
-34.861252
-38.473923
-42.730534
-47.860629
-53.890509
-60.424700
-66.494971
-70.609159
-71.062160
-66.443024
-56.152633
-40.708482
-21.689494
-1.332233
18.053441
34.611425
47.223211
55.502105
59.594859
59.955193
57.216690
52.185528
45.871015
39.440704
34.041011
30.522796
29.191880
29.716416
31.255815
32.768296
33.367438
32.577527
30.391203
27.130228
23.199847
18.866635
14.164158
8.956781
3.108725
-3.344356
-10.118314
-16.741350
-22.723479
-27.750689
-31.811250
-35.200857
-38.414836
-41.982102
-46.301780
-51.516413
-57.425058
-63.432195
-68.548522
-71.484399
-70.872557
-65.607044
-55.210051
-40.087383
-21.548943
-1.556660
17.720350
34.379614
47.123108
55.373921
59.197591
59.129186
56.008268
50.865154
44.833128
39.031859
34.395741
31.482628
30.345386
30.543964
31.317136
31.854094
31.553731
30.166071
27.770957
24.627496
20.982898
16.937241
12.422862
7.296044
1.483815
-4.895526
-11.504365
-17.871968
-23.564185
-28.367984
-32.412563
-36.169523
-40.315691
-45.486588
-51.985012
-59.533803
-67.167959
-73.338135
-76.239323
-74.294641
-66.645342
-53.468670
-35.994615
-16.207621
3.652049
21.594628
36.217681
46.796959
53.180887
55.616188
54.622047
50.949669
45.575633
39.642205
34.294695
30.444780
28.553376
28.534452
29.828891
31.618229
33.087875
33.638408
32.981064
31.113199
28.218071
24.549543
20.346862
15.794779
11.018935
6.098137
1.082397
-3.985149
-9.043167
-13.990956
-18.685963
-22.974736
-26.759783
-30.084724
-33.201293
-36.575637
-40.803508
-46.429807
-53.701738
-62.322295
-71.300000
-78.990935
-83.383098
-82.585762
-75.389131
-61.699264
-42.672046
-20.474876
2.245464
22.990107
39.906651
52.016093
59.162368
61.794303
60.724800
56.960705
51.606617
45.783171
40.504141
36.514309
34.150808
33.306368
33.529905
34.225996
34.860324
35.079014
34.705366
33.651761
31.829314
29.126542
25.471646
20.929535
15.756255
10.357048
5.153840
0.427006
-3.782324
-7.653444
-11.458524
-15.394677
-19.466484
-23.481140
-27.157314
-30.290684
-32.894838
-35.255730
-37.882747
-41.378102
-46.260172
-52.770746
-60.691653
-69.209993
-76.896997
-81.872276
-82.182497
-76.331524
-63.799561
-45.344423
-22.932154
0.712795
22.784032
41.046506
54.239270
62.126695
65.257459
64.598965
61.221924
56.130395
50.225761
44.323290
39.139362
35.219770
32.839869
31.938061
32.133041
32.832869
33.398185
33.299538
32.216850
30.058689
26.914445
22.975896
18.466429
13.600034
8.569980
3.551143
-1.302842
-5.875865
-10.110805
-14.018401
-17.660666
-21.110402
-24.404317
-27.516751
-30.376675
-32.931969
-35.240653
-37.547528
-40.293807
-44.015646
-49.122669
-55.607036
-62.795236
-69.281330
-73.140698
-72.415694
-65.730749
-52.805901
-34.651695
-13.350618
8.493113
28.412683
44.594516
56.091808
62.735933
64.882542
63.170477
58.405887
51.564825
43.812869
36.427174
30.579310
27.044339
25.972209
26.847982
28.682422
30.362529
31.014682
30.231599
28.086375
24.960822
21.294211
17.376329
13.266298
8.846957
3.962265
-1.442086
-7.241259
-13.143379
-18.775026
-23.797967
-28.011698
-31.411493
-34.195318
-36.730943
-39.493972
-42.972621
-47.525991
-53.198115
-59.532822
-65.479498
-69.486430
-69.823791
-65.075676
-54.637179
-39.012205
-19.770346
0.836091
20.445189
37.123153
49.678389
57.690246
61.331140
61.135858
57.847429
52.372423
45.778705
39.231917
33.814759
30.269312
28.780347
28.924616
29.839703
30.554456
30.335101
28.890685
26.355855
23.084025
19.377301
15.303384
10.692746
5.304933
-0.940409
-7.805971
-14.749012
-21.107172
-26.370266
-30.407557
-33.544540
-36.458434
-39.940986
-44.618220
-50.710961
-57.888016
-65.234451
-71.346580
-74.563154
-73.321930
-66.580396
-54.181939
-37.026956
-16.953179
3.665191
22.471754
37.641367
48.183606
53.968413
55.527184
53.761186
49.690231
44.309851
38.543862
33.230206
29.080215
26.591442
25.941971
26.922204
28.956184
31.231210
32.907537
33.341661
32.245051
29.720976
26.167893
22.090483
17.896188
13.759558
9.606512
5.218024
0.399479
-4.867514
-10.364336
-15.695509
-20.444252
-24.354821
-27.462316
-30.116887
-32.896713
-36.447100
-41.298918
-47.704420
-55.504418
-64.035807
-72.108406
-78.103230
-80.237505
-76.985460
-67.554049
-52.241664
-32.512031
-10.711776
10.491386
28.748822
42.517752
51.243886
55.234944
55.348472
52.662749
48.251501
43.086506
38.013342
33.726058
30.703719
29.131320
28.864424
29.484340
30.440950
31.228595
31.518495
31.193011
30.280011
28.837251
26.858393
24.254839
20.921941
16.849008
12.205676
7.345685
2.709743
-1.336573
-4.654098
-7.391643
-9.918066
-12.649313
-15.850564
-19.511106
-23.357958
-27.006889
-30.182494
-32.906302
-35.564088
-38.810535
-43.328553
-49.510284
-57.158726
-65.320958
-72.346720
-76.208504
-75.026595
-67.645185
-54.053776
-35.482382
-14.119559
7.442857
26.824730
42.313201
53.038005
58.888835
60.302613
58.061399
53.170196
46.788879
40.141345
34.349191
30.213159
28.033190
27.567220
28.171373
29.072101
29.648086
29.593536
28.901273
27.703211
26.079364
23.954972
21.145238
17.511920
13.123415
8.306790
3.546896
-0.718062
-4.289666
-7.280376
-10.023569
-12.876777
-16.030199
-19.423656
-22.808861
-25.912674
-28.608056
-31.006880
-33.441482
-36.359088
-40.177677
-45.139828
-51.177685
-57.798035
-64.021117
-68.435485
-69.425129
-65.564590
-56.083237
-41.226113
-22.341883
-1.623897
18.422774
35.593527
48.449886
56.489511
60.013032
59.809848
56.836622
52.018098
46.198693
40.179230
34.736904
30.560271
28.105861
27.449843
28.227160
29.713207
31.034012
31.428291
30.459422
28.097639
24.650232
20.581173
16.303350
12.031502
7.751263
3.305444
-1.453033
-6.521184
-11.691734
-16.614624
-20.945655
-24.508751
-27.391262
-29.928400
-32.592165
-35.845318
-40.023858
-45.272134
-51.505161
-58.355588
-65.097752
-70.604785
-73.433023
-72.097023
-65.499952
-53.372476
-36.522948
-16.756370
3.540600
21.999821
36.827056
47.115267
52.843110
54.629356
53.399899
50.117893
45.650233
40.750897
36.085971
32.228638
29.599872
28.383135
28.467672
29.465397
30.809908
31.904833
32.265848
31.607314
29.854412
27.096055
23.515474
19.334917
14.790090
10.123998
5.576571
1.353409
-2.422429
-5.751331
-8.760550
-11.655464
-14.633298
-17.798766
-21.125908
-24.490706
-27.766415
-30.944454
-34.226516
-38.031939
-42.881444
-49.157343
-56.800364
-65.063665
-72.465647
-77.034717
-76.824329
-70.539154
-58.027722
-40.425702
-19.877212
1.051625
20.021940
35.384732
46.327485
52.745510
54.997241
53.707674
49.691291
43.949446
37.637241
31.923918
27.758478
25.634345
25.470417
26.678487
28.397958
29.799298
30.331267
29.822915
28.425070
26.447375
24.181706
21.790627
19.294165
16.636156
13.778341
10.768722
7.754279
4.939610
2.516620
0.597392
-0.827009
-1.894615
-2.849916
-3.995044
-5.620465
-7.926185
-10.953476
-14.554451
-18.423779
-22.198946
-25.607216
-28.611366
-31.494749
-34.834505
-39.338873
-45.567240
-53.602296
-62.787478
-71.656771
-78.144857
-80.071676
-75.776201
-64.683075
-47.578359
-26.468684
-4.064466
16.916570
34.363099
47.097206
54.860881
58.064595
57.478846
54.017753
48.657384
42.425726
36.362324
31.389251
28.122149
26.717243
26.851800
27.870493
29.040267
29.797692
29.880682
29.304134
28.223026
26.775916
24.994569
22.813557
20.151165
16.998680
13.464266
9.754527
6.114039
2.759514
-0.164231
-2.601833
-4.589661
-6.252161
-7.789109
-9.442370
-11.436487
-13.904980
-16.832268
-20.046226
-23.280658
-26.296043
-29.015911
-31.621029
-34.551375
-38.392389
-43.658062
-50.521081
-58.573170
-66.714905
-73.256961
-76.255816
-74.017812
-65.619610
-51.257195
-32.280934
-10.890961
10.396942
29.317196
44.259790
54.417645
59.706310
60.573441
57.820178
52.489574
45.792652
39.001576
33.267775
29.395708
27.664745
27.796150
29.101918
30.760895
32.100323
32.760818
32.688716
31.991460
30.758011
28.952055
26.431072
23.065912
18.878636
14.109649
9.168974
4.493628
0.384771
-3.092596
-6.100627
-8.922114
-11.815401
-14.902769
-18.140058
-21.369412
-24.418723
-27.200737
-29.778851
-32.389233
-35.422243
-39.360413
-44.655449
-51.531517
-59.743752
-68.382416
-75.850478
-80.112313
-79.204880
-71.864052
-58.025849
-38.979392
-17.081214
4.870535
24.354653
39.663741
50.091673
55.780260
57.382277
55.743348
51.735716
46.248346
40.232695
34.682394
30.490279
28.227262
27.959359
29.217899
31.165878
32.903200
33.778974
33.571249
32.460236
30.823530
28.968034
26.941219
24.518865
21.370276
17.306281
12.469713
7.355570
2.636119
-1.129350
-3.754612
-5.519781
-7.043373
-8.992849
-11.777611
-15.376747
-19.383019
-23.233971
-26.510194
-29.157055
-31.536727
-34.305598
-38.184237
-43.707659
-51.017627
-59.722443
-68.837095
-76.831458
-81.828674
-81.972995
-75.914605
-63.272743
-44.895938
-22.781445
0.358564
21.746368
39.172683
51.398528
58.221162
60.249853
58.544162
54.284535
48.578719
42.405959
36.625506
31.963513
28.937268
27.742986
28.179833
29.680125
31.466079
32.786402
33.139672
32.390181
30.728062
28.498863
25.990688
23.286355
20.253880
16.676811
12.450883
7.734282
2.959122
-1.316902
-4.653307
-6.941863
-8.477699
-9.840241
-11.634727
-14.217243
-17.537200
-21.174875
-24.555891
-27.239835
-29.149668
-30.643889
-32.411022
-35.240124
-39.753407
-46.173718
-54.167700
-62.785445
-70.519540
-75.512685
-75.921544
-70.383830
-58.461826
-40.897511
-19.552808
2.980251
23.981525
41.210993
53.322155
59.974793
61.673004
59.452792
54.565025
48.249036
41.612353
35.573681
30.818200
27.745684
26.430329
26.628866
27.858095
29.525638
31.068077
32.048816
32.192422
31.366239
29.541738
26.765033
23.144878
18.846516
14.076065
9.050988
3.966033
-1.029289
-5.831994
-10.369927
-14.582829
-18.413558
-21.814675
-24.766093
-27.296362
-29.504007
-31.579314
-33.823289
-36.646163
-40.511706
-45.796502
-52.569067
-60.353210
-67.992122
-73.733423
-75.587021
-71.884672
-61.852242
-45.962644
-25.905628
-4.167974
16.613814
34.275723
47.503746
55.881221
59.678779
59.555960
56.334426
50.909155
44.253810
37.418845
31.442018
27.166899
25.043131
25.012015
26.545979
28.835578
31.046899
32.542942
32.988314
32.320023
30.631735
28.050764
24.673996
20.581770
15.896295
10.825203
5.645554
0.627287
-4.060029
-8.396986
-12.484772
-16.449706
-20.338552
-24.073031
-27.502353
-30.537265
-33.299611
-36.201899
-39.889221
-45.026238
-51.978305
-60.494405
-69.527471
-77.305693
-81.690471
-80.744101
-73.328395
-59.515491
-40.645665
-19.001413
2.778045
22.319289
37.958544
48.895150
55.083804
56.996176
55.397200
51.215444
45.492268
39.334211
33.801013
29.725350
27.532199
27.154440
28.104859
29.684811
31.236906
32.327553
32.786883
32.614340
31.829948
30.371935
28.102452
24.911030
20.843707
16.170423
11.340455
6.839751
3.017538
-0.034951
-2.497878
-4.725896
-7.089676
-9.828402
-12.973351
-16.365194
-19.747226
-22.891445
-25.711125
-28.328037
-31.081982
-34.480762
-39.086715
-45.335634
-53.303442
-62.477549
-71.632655
-78.919665
-82.221857
-79.720251
-70.490891
-54.900459
-34.618538
-12.214125
9.517924
28.239629
42.511134
51.869813
56.604393
57.408225
55.106476
50.554560
44.670355
38.474570
33.021477
29.194408
27.452509
27.672550
29.195092
31.079345
32.458310
32.830544
32.158305
30.743838
28.968376
27.041045
24.888243
22.231726
18.800917
14.555032
9.788653
5.057839
0.958046
-2.137697
-4.250050
-5.787250
-7.361641
-9.516107
-12.490576
-16.136532
-20.013587
-23.615885
-26.620490
-29.049591
-31.287478
-33.959654
-37.728464
-43.068666
-50.067867
-58.279550
-66.660048
-73.636284
-77.347688
-76.058897
-68.657175
-55.072983
-36.447627
-14.946184
6.747664
26.083087
41.206964
51.256190
56.320785
57.161574
54.847445
50.468146
44.997575
39.283409
34.077120
30.021446
27.567241
26.858266
27.661608
29.409829
31.363736
32.837082
33.387376
32.890376
31.474573
29.364562
26.726233
23.598133
19.937867
15.740851
11.145069
6.446326
2.004410
-1.911851
-5.252689
-8.211871
-11.126109
-14.297148
-17.829756
-21.574877
-25.215582
-28.461250
-31.258818
-33.915911
-37.062963
-41.442743
-47.582735
-55.457538
-64.270595
-72.466289
-78.018301
-78.940674
-73.870357
-62.519478
-45.825227
-25.733659
-4.697687
14.918340
31.312284
43.459316
51.066020
54.374108
53.957488
50.604262
45.280462
39.098924
33.212805
28.616328
25.917339
25.191079
26.001768
27.600064
29.214987
30.310054
30.694183
30.456785
29.786486
28.784953
27.377389
25.358534
22.535044
18.876373
14.589272
10.077653
5.810460
2.162023
-0.705696
-2.876240
-4.624666
-6.308007
-8.245923
-10.630350
-13.484411
-16.673008
-19.957914
-23.086961
-25.903391
-28.452448
-31.048816
-34.258894
-38.759347
-45.069794
-53.220559
-62.479935
-71.289092
-77.505004
-78.934342
-74.001631
-62.305744
-44.836229
-23.749677
-1.789184
18.423390
34.956074
46.818887
53.883623
56.601404
55.704426
52.026840
46.466323
40.007684
33.698761
28.517264
25.157738
23.839909
24.249831
25.667338
27.238731
28.277035
28.457806
27.833020
26.678392
25.269947
23.711375
21.895203
19.602493
16.671648
13.137213
9.264879
5.467903
2.149613
-0.451268
-2.344061
-3.769072
-5.096761
-6.690888
-8.789856
-11.445185
-14.529299
-17.798957
-20.985505
-23.884009
-26.424574
-28.718899
-31.076273
-33.974724
-37.962398
-43.470084
-50.553370
-58.644023
-66.438573
-72.042099
-73.397953
-68.898892
-57.960371
-41.315900
-20.894249
0.683830
20.786913
37.365554
49.258967
56.176500
58.467142
56.854781
52.269787
45.793261
38.631500
32.018695
27.011384
24.236872
23.720774
24.903729
26.869604
28.696466
29.772125
29.932001
29.371121
28.400117
27.191638
25.657746
23.516130
20.493016
16.535853
11.908851
7.114962
2.686490
-1.042473
-4.062332
-6.651424
-9.202361
-12.006801
-15.110450
-18.308020
-21.273115
-23.751566
-25.723259
-27.463442
-29.488254
-32.416775
-36.797984
-42.937175
-50.737059
-59.570704
-68.230026
-75.017049
-78.028559
-75.613411
-66.882562
-52.083575
-32.667522
-10.986651
10.284202
28.790796
42.975193
52.240743
56.812494
57.426308
55.020634
50.549829
44.933343
39.068550
33.813145
29.888721
27.732734
27.379892
28.453395
30.293562
32.177358
33.531908
34.049529
33.667781
32.451220
30.458823
27.677996
24.058841
19.618327
14.539575
9.192529
4.046832
-0.490341
-4.233435
-7.292046
-10.014876
-12.823787
-16.013997
-19.615209
-23.381545
-26.920608
-29.909773
-32.308028
-34.470041
-37.101859
-41.050045
-46.971856
-54.980846
-64.390176
-73.671243
-80.694940
-83.229728
-79.563112
-69.040011
-52.318788
-31.243144
-8.377131
13.618571
32.543785
46.982851
56.355293
60.773233
60.838449
57.479719
51.848874
45.225052
38.867006
33.804906
30.633805
29.404813
29.680893
30.748853
31.899557
32.651913
32.827913
32.467713
31.657787
30.383805
28.493631
25.784377
22.153442
17.718284
12.830679
7.971999
3.579814
-0.110450
-3.135323
-5.756714
-8.326297
-11.125839
-14.254522
-17.608577
-20.954218
-24.055955
-26.806217
-29.310483
-31.904511
-35.101244
-39.473592
-45.478757
-53.237407
-62.310834
-71.561243
-79.200667
-83.097728
-81.312956
-72.710794
-57.417679
-36.921082
-13.739747
9.223017
29.396493
45.065731
55.544752
61.016259
62.194234
60.003271
55.399081
49.334616
42.782539
36.708116
31.945442
29.017202
27.995963
28.498393
29.837601
31.272990
32.243345
32.479742
31.962924
30.774843
28.947419
26.403339
23.019994
18.767708
13.825093
8.585569
3.533069
-0.955554
-4.775457
-8.131425
-11.420462
-15.015998
-19.064338
-23.399723
-27.625531
-31.326856
-34.315759
-36.793968
-39.351920
-42.788080
-47.798464
-54.631764
-62.824899
-71.125172
-77.662087
-80.357106
-77.472455
-68.132478
-52.639032
-32.463797
-9.915479
12.400604
32.143674
47.645737
58.078271
63.395593
64.146992
61.262714
55.879261
49.211499
42.441910
36.599266
32.428635
30.285337
30.095442
31.407707
33.526390
35.682325
37.190247
37.555956
36.522340
34.063757
30.345905
25.663515
20.361815
14.751483
9.038519
3.298056
-2.488262
-8.341933
-14.189783
-19.817921
-24.916432
-29.207125
-32.598146
-35.288861
-37.769543
-40.707780
-44.757144
-50.342674
-57.471854
-65.606783
-73.630786
-79.947735
-82.742136
-80.384257
-71.893474
-57.310607
-37.824221
-15.569796
6.852228
26.976190
42.980614
53.950790
59.855827
61.319977
59.327192
54.977925
49.346493
43.416443
38.039382
33.877826
31.331961
30.482047
31.084016
32.634530
34.489379
35.998900
36.624839
36.017229
34.046713
30.798362
26.533227
21.620870
16.449047
11.327533
6.415451
1.702554
-2.942792
-7.675666
-12.569919
-17.556746
-22.436562
-26.958796
-30.934177
-34.333139
-37.335699
-40.321259
-43.800876
-48.293282
-54.143788
-61.301778
-69.114800
-76.242582
-80.798089
-80.755718
-74.544336
-61.625455
-42.817264
-20.201684
3.380147
25.059809
42.623583
54.906847
61.808103
64.000980
62.532920
58.499796
52.893866
46.603111
40.461370
35.245771
31.579103
29.776163
29.724867
30.885998
32.437890
33.520486
33.484836
32.051441
29.323409
25.664729
21.508070
17.177569
12.795381
8.298275
3.542752
-1.558344
-6.934900
-12.341917
-17.432505
-21.886568
-25.535626
-28.429144
-30.821151
-33.097832
-35.690124
-39.005135
-43.372310
-48.964995
-55.663581
-62.882015
-69.451436
-73.688392
-73.726634
-68.064159
-56.136662
-38.664484
-17.587022
4.424043
24.684659
41.156782
52.794811
59.499967
61.798814
60.472167
56.330721
50.196384
42.998492
35.824187
29.807199
25.861896
24.387714
25.110426
27.168497
29.427516
30.885134
30.982739
29.691123
27.354488
24.396831
21.054278
17.269248
12.786339
7.379110
1.071106
-5.774308
-12.544583
-18.603111
-23.538511
-27.323756
-30.324104
-33.168515
-36.553041
-41.049635
-46.957714
-54.195047
-62.215217
-69.968136
-75.959495
-78.470556
-75.946551
-67.467509
-53.134457
-34.196271
-12.827919
8.385803
27.077160
41.603808
51.273718
56.258273
57.297746
55.366497
51.437291
46.393770
41.046179
36.158420
32.410992
30.285660
29.923769
31.042823
32.979039
34.865725
35.889226
35.523176
33.648353
30.515242
26.575600
22.263900
17.825714
13.263388
8.412314
3.100718
-2.690804
-8.751318
-14.683205
-20.047885
-24.545433
-28.146041
-31.119852
-33.964232
-37.270858
-41.584013
-47.275312
-54.426004
-62.701937
-71.241642
-78.630687
-83.054612
-82.672302
-76.143054
-63.130871
-44.569565
-22.542692
0.209654
20.980366
37.721461
49.389541
55.935556
58.025260
56.671204
52.945316
47.846443
42.286744
37.101333
33.001955
30.463681
29.603854
30.139474
31.475736
32.906398
33.840964
33.955260
33.203077
31.702378
29.575213
26.839331
23.413387
19.227555
14.365250
9.138402
4.033486
-0.461670
-4.068202
-6.850663
-9.194192
-11.623251
-14.546825
-18.057995
-21.891736
-25.567636
-28.653907
-31.030839
-33.032331
-35.396516
-39.031037
-44.662975
-52.480123
-61.878964
-71.418143
-79.031881
-82.484216
-79.955713
-70.584467
-54.773575
-34.146840
-11.163093
11.470556
31.379507
46.917163
57.298401
62.513788
63.137492
60.132568
54.694718
48.115158
41.625401
36.217290
32.481338
30.531621
30.061191
30.512366
31.290162
31.929075
32.153871
31.835278
30.896326
29.242698
26.763280
23.395948
19.210231
14.446054
9.472604
4.677173
0.334528
-3.479521
-6.887720
-10.124839
-13.408543
-16.831534
-20.326199
-23.714397
-26.813657
-29.549256
-32.026286
-34.539439
-37.523378
-41.454638
-46.708212
-53.371477
-61.044564
-68.702283
-74.722249
-77.156764
-74.231810
-64.931319
-49.441042
-29.246971
-6.813976
15.049187
33.894892
48.147730
57.264609
61.558571
61.842909
59.094394
54.267975
48.272749
42.018077
36.413974
32.264415
30.082320
29.922452
31.335639
33.492249
35.437752
36.377376
35.874664
33.894302
30.695262
26.644886
22.048841
17.068372
11.742137
6.077332
0.148029
-5.855127
-11.647469
-16.930178
-21.486866
-25.253276
-28.335343
-30.979748
-33.524095
-36.355959
-39.886295
-44.508831
-50.500735
-57.843005
-66.003044
-73.793099
-79.440142
-80.938452
-76.623112
-65.767409
-48.951090
-28.016168
-5.599310
15.580420
33.393445
46.681717
55.255645
59.594929
60.459056
58.608931
54.732002
49.523034
43.785687
38.427966
34.308784
31.997769
31.575955
32.594468
34.229277
35.569751
35.913821
34.945244
32.733155
29.582948
25.832024
21.694354
17.216287
12.340131
7.018660
1.309199
-4.599811
-10.433853
-15.916563
-20.848715
-25.151463
-28.870718
-32.162543
-35.283457
-38.590917
-42.530393
-47.566291
-54.022648
-61.845525
-70.368567
-78.213854
-83.447301
-84.017846
-78.373085
-66.029027
-47.850642
-25.900982
-2.899310
18.497703
36.306097
49.501679
57.941850
62.054555
62.507936
60.026432
55.384987
49.484421
43.366052
38.081307
34.446296
32.803914
32.928594
34.136401
35.553080
36.413469
36.260935
34.981019
32.695858
29.608802
25.890111
21.645678
16.950728
11.896960
6.609677
1.227468
-4.130697
-9.380325
-14.456445
-19.283521
-23.760361
-27.784651
-31.319463
-34.478132
-37.586062
-41.173389
-45.862363
-52.142286
-60.075107
-69.032380
-77.597732
-83.744304
-85.301467
-80.590339
-69.001194
-51.275830
-29.366063
-5.919717
16.395099
35.463547
50.011324
59.582234
64.327740
64.780501
61.725482
56.168968
49.317622
42.471401
36.804333
33.101339
31.571355
31.834678
33.101296
34.465971
35.195334
34.896049
33.519709
31.239629
28.283566
24.806063
20.845204
16.358241
11.296432
5.674320
-0.393744
-6.693652
-12.938938
-18.816160
-24.043878
-28.443468
-32.014818
-34.996257
-37.876340
-41.325264
-46.028127
-52.431896
-60.462500
-69.313583
-77.424126
-82.723157
-83.125405
-77.143990
-64.404425
-45.852462
-23.557710
-0.181915
21.678258
40.025712
53.709374
62.372249
66.228777
65.844055
62.024608
55.811708
48.475122
41.397582
35.819420
32.524468
31.617796
32.523986
34.231032
35.679210
36.119084
35.281931
33.307276
30.497946
27.054781
22.938381
17.922136
11.790302
4.557464
-3.420704
-11.512168
-19.020328
-25.440867
-30.645842
-34.921165
-38.858620
-43.162749
-48.444156
-55.041361
-62.877554
-71.352004
-79.296149
-85.059645
-86.785955
-82.868277
-72.469182
-55.907105
-34.722957
-11.356692
11.463987
31.386751
46.896872
57.436638
63.214277
64.872940
63.217183
59.105296
53.478015
47.398178
41.977677
38.158652
36.432964
36.652885
38.061482
39.563562
40.129414
39.149302
36.579607
32.827711
28.453054
23.847869
19.060186
13.837259
7.848464
0.956687
-6.611404
-14.288214
-21.372784
-27.323701
-32.000722
-35.749351
-39.299723
-43.528882
-49.175115
-56.584705
-65.537144
-75.169650
-84.020584
-90.217985
-91.825301
-87.305156
-75.988527
-58.385461
-36.192448
-11.952039
11.539161
31.868532
47.469053
57.770715
63.053047
64.130673
62.039079
57.832343
52.507029
46.990003
42.110880
38.519332
36.568340
36.225039
37.069297
38.401809
39.433162
39.491491
38.182423
35.455274
31.562036
26.929943
21.994591
17.052248
12.184454
7.283242
2.164226
-3.287059
-9.008602
-14.749897
-20.161979
-24.944874
-28.980123
-32.389557
-35.506300
-38.789672
-42.730598
-47.768631
-54.199476
-62.035486
-70.818622
-79.459729
-86.233661
-89.040766
-85.937059
-75.783060
-58.753671
-36.466900
-11.636398
12.637903
33.663479
49.728037
60.269159
65.658548
66.784317
64.664683
60.248233
54.409889
48.031787
42.030256
37.255033
34.291817
33.276252
33.833524
35.194292
36.446221
36.814744
35.860033
33.526215
30.050962
25.800622
21.113674
16.211898
11.194610
6.091667
0.931287
-4.216310
-9.236830
-14.004041
-18.421963
-22.451031
-26.106499
-29.439999
-32.530398
-35.505750
-38.592130
-42.149029
-46.628733
-52.413082
-59.541779
-67.430022
-74.731646
-79.486852
-79.586168
-73.427446
-60.520288
-41.777136
-19.347419
3.950986
25.372442
42.863242
55.349707
62.663106
65.242800
63.829964
59.304163
52.676787
45.132467
37.977973
32.431585
29.310317
28.765942
30.224021
32.587785
34.633656
35.427216
34.580641
32.254270
28.931203
25.099130
21.004312
16.588116
11.612365
5.883891
-0.552893
-7.359065
-14.004919
-19.973876
-24.961223
-28.977877
-32.328787
-35.500955
-39.027257
-43.372999
-48.844390
-55.484423
-62.936646
-70.318497
-76.206013
-78.831436
-76.511947
-68.197092
-53.920788
-34.943472
-13.488227
7.843226
26.740627
41.676754
52.059161
58.055575
60.253873
59.361974
56.079946
51.139829
45.396819
39.832460
35.401329
32.768874
32.075051
32.863533
34.238860
35.197029
34.983667
33.319835
30.403177
26.703149
22.667190
18.489798
14.053487
9.057336
3.253836
-3.335997
-10.342802
-17.146922
-23.109688
-27.831768
-31.323754
-34.020333
-36.643266
-39.978374
-44.646793
-50.921765
-58.602621
-66.944785
-74.665375
-80.071324
-81.352396
-77.022494
-66.398514
-49.936933
-29.262179
-6.829542
14.677488
32.993751
46.724960
55.467912
59.619533
60.027449
57.669414
53.480396
48.329362
43.056162
38.461108
35.196613
33.597756
33.549018
34.483074
35.547238
35.887433
34.935353
32.576514
29.127812
25.138263
21.107181
17.251266
13.427458
9.243581
4.298918
-1.565502
-8.130891
-14.845871
-21.031296
-26.148858
-30.013355
-32.863500
-35.278147
-37.990510
-41.676588
-46.771406
-53.326566
-60.905138
-68.529980
-74.735454
-77.779558
-76.027237
-68.425723
-54.910193
-36.563887
-15.435125
5.946547
25.181916
40.517048
51.094248
56.902755
58.524803
56.836378
52.793542
47.346257
41.432008
35.961329
31.732479
29.279256
28.719147
29.690725
31.437581
33.029131
33.642224
32.796534
30.455459
26.961128
22.840757
18.572051
14.406209
10.316300
6.081929
1.461692
-3.632015
-9.039624
-14.386789
-19.227829
-23.234266
-26.344663
-28.814931
-31.156537
-33.996239
-37.908741
-43.257659
-50.054568
-57.841077
-65.623375
-71.919889
-74.981818
-73.190892
-65.543929
-52.052325
-33.878355
-13.120428
7.693624
26.219131
40.788190
50.629107
55.793308
56.896461
54.830120
50.562467
45.057248
39.256822
34.047067
30.157128
28.013258
27.617824
28.532046
30.000323
31.186230
31.432424
30.440487
28.300541
25.366984
22.043667
18.578839
14.962223
10.967482
6.314724
0.870960
-5.212542
-11.498336
-17.404116
-22.425801
-26.341779
-29.308870
-31.814730
-34.517714
-38.045332
-42.816285
-48.913022
-55.998797
-63.273834
-69.496364
-73.121395
-72.593301
-66.757352
-55.267260
-38.822115
-19.106709
1.575138
20.850214
36.805800
48.318216
55.104504
57.550381
56.447684
52.770022
47.544633
41.795330
36.488168
32.428607
30.116670
29.621294
30.550439
32.159990
33.580105
34.078163
33.255715
31.104191
27.907222
24.045727
19.802036
15.253554
10.298755
4.791582
-1.292586
-7.750503
-14.164552
-20.036413
-24.982721
-28.906939
-32.074746
-35.062310
-38.594345
-43.318805
-49.571912
-57.184190
-65.377394
-72.800975
-77.740537
-78.486400
-73.784162
-63.230790
-47.468776
-28.089952
-7.270641
12.732849
30.049813
43.477428
52.532422
57.328077
58.386372
56.479124
52.529203
47.541696
42.514620
38.305422
35.477439
34.185539
34.159877
34.810102
35.420132
35.363860
34.264680
32.048257
28.883235
25.047777
20.785350
16.212033
11.309659
5.998027
0.244994
-5.841988
-11.990345
-17.820322
-22.968145
-27.230170
-30.674205
-33.673808
-36.844711
-40.887391
-46.361390
-53.437425
-61.693496
-70.033808
-76.799111
-80.091290
-78.255889
-70.382237
-56.640528
-38.314550
-17.501796
3.410256
22.292041
37.650663
48.745308
55.477897
58.188488
57.486820
54.175318
49.225323
43.722163
38.722484
35.043339
33.069843
32.679484
33.328886
34.268928
34.795441
34.435389
33.011811
30.593974
27.384910
23.608545
19.437074
14.967408
10.234777
5.246433
0.022578
-5.364852
-10.768113
-15.970120
-20.731592
-24.874090
-28.375203
-31.438453
-34.501225
-38.158775
-43.003701
-49.404448
-57.272449
-65.892248
-73.900251
-79.475007
-80.736166
-76.258964
-65.537595
-49.219729
-29.006791
-7.245255
13.639241
31.656488
45.550064
54.831421
59.623338
60.447283
58.065658
53.409016
47.538897
41.570275
36.514961
33.077611
31.489965
31.471141
32.349561
33.304881
33.631137
32.917622
31.090661
28.328443
24.914633
21.107564
17.071870
12.874867
8.520143
3.988363
-0.729203
-5.603802
-10.546039
-15.393473
-19.926163
-23.923531
-27.256359
-29.984015
-32.413235
-35.078475
-38.624315
-43.600270
-50.210680
-58.092353
-66.210018
-72.947323
-76.419296
-74.947809
-67.557457
-54.314093
-36.372473
-15.709898
5.351753
24.655610
40.580149
52.186478
59.171489
61.730075
60.429303
56.135408
49.961103
43.167193
36.979084
32.345085
29.723105
28.993703
29.550824
30.541815
31.159396
30.868389
29.488931
27.130315
24.035757
20.426515
16.414903
12.007721
7.174830
1.933733
-3.595139
-9.185990
-14.555959
-19.442806
-23.684542
-27.280108
-30.419921
-33.479666
-36.968198
-41.415365
-47.192206
-54.286838
-62.106675
-69.411013
-74.464385
-75.427575
-70.891093
-60.361682
-44.499282
-24.992790
-4.118710
15.834250
33.046190
46.395706
55.425231
60.159263
60.934416
58.337580
53.233493
46.776295
40.297543
35.044197
31.850049
30.891651
31.659925
33.179810
34.387917
34.501350
33.221452
30.704314
27.345268
23.507422
19.335653
14.737369
9.516849
3.572065
-2.961828
-9.701026
-16.137311
-21.832436
-26.588633
-30.523330
-34.030624
-37.662657
-41.982824
-47.424757
-54.158317
-61.953280
-70.060547
-77.178089
-81.589117
-81.515563
-75.625667
-63.524967
-46.018009
-24.997314
-2.973976
17.571817
34.762553
47.609568
55.957809
60.200646
60.963261
58.918439
54.777140
49.369365
43.676130
38.718320
35.315894
33.830140
34.032431
35.187220
36.328062
36.607152
35.564884
33.209842
29.895529
26.076069
22.069534
17.937839
13.523359
8.601901
3.060119
-2.994936
-9.242378
-15.257836
-20.668366
-25.279390
-29.124912
-32.438071
-35.578818
-38.964605
-43.022792
-48.139200
-54.551963
-62.165634
-70.335147
-77.744967
-82.523208
-82.650726
-76.576469
-63.812262
-45.242071
-22.982160
0.174120
21.503942
38.994010
51.644939
59.395016
62.796199
62.657751
59.826533
55.143861
49.496242
43.832000
39.062387
35.862397
34.467736
34.584446
35.479186
36.229797
36.036618
34.467015
31.538895
27.623959
23.230421
18.770910
14.416214
10.086795
5.567195
0.673956
-4.610251
-10.097858
-15.462088
-20.366501
-24.593661
-28.118380
-31.108194
-33.873160
-36.803078
-40.314385
-44.793639
-50.498723
-57.393286
-64.948572
-72.015850
-76.897411
-77.686564
-72.819898
-61.652064
-44.805599
-24.115719
-2.162033
18.430065
35.631752
48.354180
56.415011
60.238228
60.503453
57.933203
53.274886
47.389955
41.296125
36.054471
32.513680
31.036079
31.362349
32.706800
34.053889
34.521806
33.630621
31.371545
28.078691
24.194765
20.055076
15.782433
11.314858
6.522461
1.339305
-4.155220
-9.735644
-15.099133
-19.964901
-24.161289
-27.673354
-30.647937
-33.371752
-36.238916
-39.705634
-44.207352
-50.010927
-57.007575
-64.513909
-71.199052
-75.248287
-74.787943
-68.463796
-55.957865
-38.216735
-17.270919
4.297226
24.021900
40.093040
51.586509
58.373695
60.849420
59.668825
55.619390
49.625960
42.781402
36.279256
31.201996
28.233154
27.437490
28.242300
29.659045
30.660249
30.544041
29.124415
26.674327
23.672521
20.497683
17.228090
13.638599
9.378054
4.218065
-1.764242
-8.162325
-14.381121
-19.867908
-24.322771
-27.800762
-30.679789
-33.529687
-36.944313
-41.383993
-47.042290
-53.730990
-60.791146
-67.074816
-71.063902
-71.164892
-66.139023
-55.535128
-39.947682
-20.967414
-0.815238
18.209133
34.251158
46.210353
53.762882
57.166985
57.006550
54.015145
49.027921
43.001004
36.988767
32.005778
28.792662
27.591131
28.056744
29.381254
30.590216
30.887483
29.891611
27.664702
24.541751
20.868860
16.797508
12.240933
7.003462
0.997102
-5.587695
-12.264543
-18.410049
-23.527069
-27.485404
-30.623529
-33.660606
-37.451560
-42.675499
-49.557357
-57.697063
-66.046676
-73.048967
-76.927611
-76.087012
-69.535357
-57.208338
-40.074704
-19.964232
0.841618
20.120538
36.147109
47.925478
55.186172
58.220022
57.671307
54.384858
49.327874
43.540478
38.050336
33.723969
31.089829
30.211400
30.684310
31.780279
32.690745
32.774805
31.715114
29.530099
26.457437
22.778694
18.672975
14.162942
9.165816
3.611224
-2.440730
-8.744504
-14.909092
-20.519940
-25.293998
-29.207471
-32.548467
-35.872949
-39.867868
-45.142913
-51.986904
-60.144264
-68.687656
-76.066608
-80.378428
-79.831253
-73.273776
-60.604087
-42.888678
-22.127390
-0.746131
18.986400
35.402088
47.607737
55.401867
59.058307
59.127061
56.337980
51.589007
45.930703
40.464511
36.141813
33.533550
32.681405
33.114387
34.036677
34.611026
34.220985
32.613093
29.882967
26.340852
22.335798
18.117687
13.782730
9.302872
4.605403
-0.342079
-5.476717
-10.631617
-15.570997
-20.054808
-23.914377
-27.122445
-29.843540
-32.450011
-35.485316
-39.555455
-45.140890
-52.352572
-60.702945
-68.999658
-75.461408
-78.087240
-75.201059
-65.992153
-50.840371
-31.284019
-9.635246
11.602727
30.289769
44.988301
55.027464
60.366668
61.401849
58.829532
53.592429
46.845242
39.856372
33.809821
29.553689
27.399568
27.072687
27.849289
28.831263
29.245881
28.653522
26.996518
24.497511
21.477588
18.185942
14.710291
10.988444
6.893707
2.341555
-2.632514
-7.851457
-13.031724
-17.855924
-22.059111
-25.510015
-28.274385
-30.647181
-33.134845
-36.365135
-40.910875
-47.043966
-54.483343
-62.243210
-68.691447
-71.869878
-70.019895
-62.146432
-48.402720
-30.128601
-9.514884
10.972329
29.175587
43.625872
53.629618
59.127475
60.480699
58.324268
53.525096
47.175685
40.515118
34.723921
30.643683
28.551439
28.116395
28.580538
29.086541
28.997490
28.060428
26.353928
24.077261
21.319504
17.947293
13.672637
8.254998
1.715551
-5.564440
-12.924837
-19.654722
-25.260977
-29.656709
-33.194375
-36.542353
-40.462455
-45.561489
-52.070890
-59.686367
-67.496865
-74.043745
-77.549896
-76.317118
-69.210665
-56.074806
-37.907830
-16.696952
5.050587
24.912311
41.068288
52.562227
59.267345
61.652621
60.508877
56.760584
51.393066
45.433296
39.892024
35.619186
33.107943
32.346530
32.817716
33.678836
34.060397
33.355808
31.375364
28.303984
24.500702
20.254891
15.628549
10.462399
4.534867
-2.219112
-9.555939
-16.931370
-23.681273
-29.300054
-33.689794
-37.261406
-40.830735
-45.334359
-51.455940
-59.284200
-68.116320
-76.483748
-82.420546
-83.926133
-79.505727
-68.625749
-51.928299
-31.120901
-8.573564
13.234048
32.222154
47.021991
57.037725
62.321110
63.381316
61.032052
56.302445
50.366351
44.424788
39.516605
36.302584
34.916328
34.964958
35.698276
36.284151
36.076181
34.766936
32.380435
29.134911
25.261621
20.873352
15.938621
10.358622
4.095006
-2.721913
-9.760666
-16.552442
-22.631667
-27.704335
-31.784183
-35.245161
-38.761485
-43.134845
-49.036339
-56.717054
-65.765277
-75.002303
-82.595651
-86.415542
-84.573224
-75.988798
-60.789911
-40.378387
-17.118463
6.248582
27.245990
44.128778
56.044421
62.910177
65.152886
63.481818
58.789085
52.151087
44.819752
38.098176
33.084225
30.375965
29.890003
30.908350
32.359230
33.216287
32.839974
31.116689
28.354839
25.016535
21.435199
17.658763
13.480070
8.616818
2.932455
-3.421152
-10.009582
-16.262826
-21.689549
-26.061451
-29.496514
-32.423887
-35.462014
-39.259113
-44.328410
-50.883774
-58.677279
-66.871749
-74.024612
-78.268497
-77.717273
-71.015426
-57.843031
-39.160109
-17.057581
5.753583
26.621598
43.538471
55.430593
62.114915
64.039936
62.000844
56.969112
50.053605
42.498935
35.600571
30.486171
27.825122
27.608341
29.135400
31.254236
32.771112
32.857045
31.273309
28.326351
24.594572
20.576630
16.440504
11.991781
6.860692
0.793767
-6.113962
-13.373941
-20.272867
-26.170549
-30.780489
-34.304393
-37.370790
-40.817589
-45.409943
-51.580767
-59.244020
-67.700211
-75.651231
-81.354169
-82.936023
-78.839845
-68.294874
-51.647586
-30.405069
-6.939307
16.060428
36.192617
51.795405
62.119646
67.232789
67.772085
64.694252
59.113823
52.228604
45.261724
39.346715
35.338858
33.610471
33.931461
35.520630
37.282165
38.152882
37.427527
34.932980
30.987441
26.175811
21.051867
15.905670
10.697413
5.173963
-0.904720
-7.552429
-14.469831
-21.130727
-27.000047
-31.778539
-35.560670
-38.838494
-42.355596
-46.871037
-52.907902
-60.541361
-69.257912
-77.914286
-84.835297
-88.085186
-85.901414
-77.199201
-61.982385
-41.487838
-17.972975
5.801709
27.213745
44.317256
56.116311
62.541688
64.223335
62.202504
57.692262
51.915992
45.993477
40.836541
37.049371
34.865075
34.155886
34.523706
35.436463
36.356091
36.819044
36.467307
35.057438
32.476344
28.768134
24.147662
18.967939
13.630653
8.466841
3.641291
-0.870879
-5.222563
-9.579623
-14.012302
-18.447970
-22.705338
-26.588072
-29.990733
-32.973522
-35.787234
-38.853396
-42.706576
-47.887649
-54.764879
-63.285062
-72.721761
-81.552683
-87.606223
-88.533177
-82.504527
-68.889395
-48.622486
-24.072981
1.562130
25.105645
44.155755
57.484053
65.000478
67.410837
65.797270
61.318881
55.099279
48.231911
41.776132
36.659632
33.500303
32.441995
33.113094
34.757605
36.494898
37.594546
37.647184
36.572930
34.496389
31.580278
27.916864
23.528608
18.456314
12.858729
7.043536
1.395799
-3.763390
-8.307499
-12.344061
-16.132386
-19.919171
-23.781259
-27.565081
-30.963972
-33.704234
-35.755167
-37.463829
-39.542525
-42.887077
-48.258628
-55.911607
-65.287633
-74.906550
-82.552339
-85.762979
-82.509809
-71.846205
-54.280099
-31.712587
-6.956409
16.979788
37.571383
53.198011
63.226289
67.835580
67.749556
64.010936
57.843043
50.553739
43.411783
37.471056
33.389952
31.329721
30.989502
31.768434
32.981427
34.035401
34.507654
34.132395
32.750896
30.284718
26.754132
22.315126
17.263221
11.969292
6.761128
1.811132
-2.900968
-7.521765
-12.188968
-16.906353
-21.504448
-25.713307
-29.309528
-32.260251
-34.794019
-37.372535
-40.584125
-44.995458
-50.981663
-58.539124
-67.102074
-75.431601
-81.682244
-83.725928
-79.708719
-68.677438
-51.026324
-28.547837
-4.027742
19.473373
39.372982
54.077173
63.106219
66.879077
66.336976
62.606013
56.812006
50.037694
43.328868
37.651935
33.767101
32.058505
32.409057
34.201673
36.475306
38.193603
38.533632
37.093791
33.952666
29.567326
24.557778
19.463319
14.562802
9.823635
4.993139
-0.213581
-5.918327
-11.970459
-17.977419
-23.462268
-28.072876
-31.743815
-34.742064
-37.591716
-40.928104
-45.343292
-51.251461
-58.759270
-67.518166
-76.581927
-84.362459
-88.802853
-87.821213
-79.938952
-64.869605
-43.801685
-19.209606
5.769840
28.158621
45.834506
57.858374
64.375509
66.229010
64.520334
60.313736
54.550333
48.102214
41.834947
36.577672
32.985983
31.366242
31.564901
32.997249
34.819721
36.181178
36.455303
35.369592
32.996681
29.635091
25.647593
21.329235
16.848603
12.263686
7.579859
2.807123
-2.013039
-6.815355
-11.534944
-16.123791
-20.547526
-24.771319
-28.758662
-32.505232
-36.110156
-39.854989
-44.229574
-49.835577
-57.134719
-66.090012
-75.842771
-84.618071
-90.002017
-89.581902
-81.750474
-66.352755
-44.882030
-20.114902
4.674043
26.591815
43.754120
55.464410
61.981035
64.087509
62.716867
58.777799
53.169081
46.852402
40.844514
36.074786
33.164784
32.250153
32.949862
34.511467
36.071706
36.919354
36.656836
35.216445
32.758793
29.528010
25.739119
21.534740
17.001067
12.205144
7.217758
2.111320
-3.051507
-8.215449
-13.309051
-18.216105
-22.772407
-26.811858
-30.260133
-33.242134
-36.149902
-39.618986
-44.381533
-51.001604
-59.549260
-69.322977
-78.758621
-85.634267
-87.581565
-82.775964
-70.565506
-51.782194
-28.590068
-3.918167
19.294597
38.749212
53.116454
62.008076
65.721271
64.957750
60.659451
53.971483
46.232451
38.872742
33.177990
29.986814
29.461653
31.057245
33.723151
36.265656
37.721676
37.598638
35.903995
32.986319
29.286505
25.120311
20.580663
15.580984
9.993576
3.800815
-2.817542
-9.500101
-15.811700
-21.394016
-26.099818
-30.068062
-33.723126
-37.700951
-42.709747
-49.330661
-57.772996
-67.632063
-77.742175
-86.235920
-90.877573
-89.630430
-81.290508
-65.946429
-45.063616
-21.136620
2.961441
24.675367
42.252067
54.878292
62.514886
65.600815
64.815191
60.990579
55.138682
48.465475
42.263598
37.662203
35.325357
35.248074
36.768897
38.817383
40.299715
40.457785
39.052844
36.314731
32.710686
28.664432
24.362163
19.721964
14.513789
8.547712
1.829021
-5.391232
-12.683388
-19.582326
-25.740746
-31.037446
-35.616714
-39.865880
-44.350027
-49.710002
-56.507455
-65.000752
-74.878601
-85.047795
-93.618943
-98.205640
-96.531285
-87.171466
-70.143060
-47.068130
-20.804891
5.325486
28.404766
46.537588
59.028883
66.149416
68.701671
67.640326
63.899820
58.414566
52.194371
46.307719
41.716693
39.028825
38.305153
39.046501
40.385668
41.403424
41.426156
40.181705
37.769648
34.494564
30.666540
26.467978
21.930462
16.999641
11.628557
5.843263
-0.243316
-6.457855
-12.605301
-18.497983
-23.972112
-28.905056
-33.249674
-37.089544
-40.698369
-44.566994
-49.350382
-55.696389
-63.957655
-73.854999
-84.230873
-93.056717
-97.796096
-96.080460
-86.487366
-69.114922
-45.692852
-19.155673
7.160185
30.369968
48.618553
61.216366
68.391675
70.879457
69.585069
65.445564
59.451213
52.689780
46.288536
41.226584
38.098112
36.955515
37.325127
38.397790
39.309654
39.393454
38.310285
36.041030
32.780912
28.807394
24.376836
19.669475
14.773125
9.689577
4.358695
-1.295045
-7.294325
-13.538769
-19.769845
-25.606094
-30.657337
-34.687461
-37.764662
-40.331616
-43.149348
-47.106665
-52.927211
-60.840687
-70.312056
-79.936618
-87.591198
-90.865243
-87.688653
-76.968072
-59.000822
-35.496524
-9.185176
16.842540
39.817215
57.768916
69.699729
75.500122
75.747813
71.514262
64.218229
55.482066
46.927324
39.900587
35.202152
32.935257
32.562395
33.162534
33.786257
33.760180
32.820327
31.041082
28.625566
25.683634
22.116507
17.660350
12.054158
5.235284
-2.543511
-10.738467
-18.674341
-25.772379
-31.755677
-36.757700
-41.300483
-46.148081
-52.064093
-59.514968
-68.378755
-77.747607
-85.931024
-90.737901
-90.021412
-82.342161
-67.509856
-46.770376
-22.533223
2.268093
24.925702
43.522309
57.129321
65.652511
69.505096
69.330947
65.906714
60.192345
53.383315
46.817423
41.698680
38.745129
37.949262
38.603349
39.606520
39.916446
38.928030
36.601701
33.300739
29.452537
25.235817
20.468628
14.749867
7.762175
-0.443813
-9.350188
-18.120413
-25.927067
-32.302037
-37.349104
-41.731629
-46.450263
-52.500053
-60.513076
-70.468923
-81.530150
-92.051081
-99.802618
-102.422196
-98.019860
-85.774317
-66.299373
-41.607757
-14.647219
11.433913
34.016293
51.474467
63.259693
69.667594
71.480384
69.676226
65.297221
59.438335
53.244651
47.820686
44.037973
42.315053
42.484939
43.837619
45.345498
45.993469
45.088513
42.433862
38.310362
33.287020
27.949015
22.658034
17.440286
12.041013
6.112540
-0.554341
-7.864626
-15.400074
-22.561983
-28.816084
-33.932898
-38.119175
-41.985851
-46.369420
-52.074929
-59.615524
-68.998303
-79.582641
-90.039165
-98.456088
-102.638330
-100.593013
-91.099573
-74.175889
-51.239530
-24.856403
1.864654
26.017425
45.511869
59.357429
67.581793
70.909339
70.392500
67.147219
62.234975
56.635297
51.220961
46.686646
43.448740
41.576660
40.808628
40.658862
40.573105
40.069579
38.821300
36.672925
33.615388
29.749441
25.254834
20.361078
15.307589
10.291105
5.416863
0.680229
-4.003565
-8.727733
-13.511952
-18.253771
-22.745455
-26.758092
-30.162963
-33.041695
-35.740351
-38.844271
-43.072233
-49.098142
-57.312932
-67.557074
-78.894532
-89.542388
-97.072110
-98.923144
-93.128066
-79.008538
-57.552207
-31.274927
-3.582861
22.128003
43.283344
58.560424
67.843256
71.835756
71.592348
68.195226
62.660339
55.992733
49.234809
43.392408
39.238751
37.100651
36.759294
37.539640
38.559517
39.025129
38.443298
36.676214
33.851411
30.205350
25.952580
21.235660
16.152310
10.812718
5.373402
0.020887
-5.083098
-9.857111
-14.317819
-18.545461
-22.615054
-26.534763
-30.234521
-33.625052
-36.710591
-39.704878
-43.080926
-47.489779
-53.522617
-61.361337
-70.441607
-79.298769
-85.738255
-87.355175
-82.263639
-69.767534
-50.690697
-27.211539
-2.262303
21.253851
41.110465
56.051170
65.708730
70.312205
70.409226
66.750427
60.325559
52.415620
44.510493
38.038449
33.993633
32.638526
33.442807
35.309607
36.999415
37.565581
36.614142
34.294266
31.059295
27.342197
23.315672
18.847299
13.649499
7.523573
0.555859
-6.841350
-14.062960
-20.545437
-25.984596
-30.440678
-34.303237
-38.157943
-42.624497
-48.209816
-55.173796
-63.384531
-72.171513
-80.247980
-85.810279
-86.883858
-81.870168
-70.115054
-52.256077
-30.169734
-6.508487
15.994130
35.168232
49.762371
59.431551
64.466451
65.473289
63.182850
58.435397
52.246731
45.803157
40.291435
36.597600
35.019730
35.162355
36.097860
36.741575
36.271293
34.394868
31.348438
27.647892
23.739358
19.737790
15.387696
10.256505
4.045062
-3.160687
-10.837775
-18.207859
-24.565216
-29.591837
-33.512424
-37.025217
-41.047919
-46.385748
-53.433736
-61.983927
-71.162664
-79.504066
-85.167067
-86.293495
-81.460792
-70.118308
-52.854538
-31.367877
-8.113631
14.266462
33.531483
48.244952
57.889763
62.724031
63.505339
61.225892
56.940753
51.684584
46.416836
41.939684
38.781744
37.092860
36.615042
36.770761
36.854230
36.255386
34.625706
31.922087
28.322684
24.067713
19.310926
14.057499
8.215941
1.730514
-5.282567
-12.476927
-19.341788
-25.377058
-30.307415
-34.242011
-37.703938
-41.499346
-46.449973
-53.058774
-61.208127
-69.997586
-77.806333
-82.608667
-82.484773
-76.181610
-63.532671
-45.575578
-24.313668
-2.209810
18.392452
35.713100
48.725270
57.102966
61.042428
61.092052
58.060623
52.977967
47.025500
41.373976
36.944672
34.188389
32.996528
32.805025
32.856570
32.503990
31.416671
29.605570
27.278812
24.624243
21.643985
18.128493
13.776985
8.392157
2.041618
-4.899529
-11.848157
-18.209088
-23.582002
-27.898235
-31.445704
-34.787439
-38.607625
-43.520569
-49.866729
-57.518160
-65.736136
-73.152270
-77.946415
-78.241823
-72.638308
-60.707710
-43.247825
-22.164370
-0.002220
20.696992
37.961322
50.683301
58.594818
62.028044
61.642778
58.259543
52.820689
46.393735
40.103840
34.947753
31.547745
29.974022
29.749740
30.061445
30.084651
29.269344
27.454785
24.781209
21.477186
17.661343
13.274281
8.168545
2.286487
-4.194192
-10.844792
-17.121058
-22.587433
-27.122564
-31.009841
-34.869943
-39.454373
-45.362282
-52.759743
-61.180341
-69.476229
-75.966650
-78.785605
-76.359556
-67.876389
-53.581756
-34.784484
-13.559435
7.743013
26.999918
42.666840
53.904903
60.521846
62.829504
61.509372
57.513895
51.970508
46.041873
40.733980
36.702266
34.137597
32.791978
32.139349
31.599546
30.724649
29.272990
27.161389
24.352778
20.765708
16.269874
10.772614
4.339460
-2.735061
-9.964777
-16.815652
-22.896426
-28.112084
-32.715571
-37.240509
-42.339741
-48.570319
-56.162603
-64.813025
-73.559664
-80.819449
-84.649294
-83.219845
-75.381682
-61.118963
-41.687954
-19.349312
3.221142
23.609999
40.165437
52.156133
59.607940
62.985394
62.922093
60.118953
55.386932
49.706108
44.169339
39.770420
37.118034
36.228721
36.529935
37.098570
37.032390
35.778793
33.269278
29.812266
25.822693
21.546542
16.930671
11.700256
5.588191
-1.421347
-8.976446
-16.438014
-23.123397
-28.598149
-32.882477
-36.484358
-40.248208
-45.075214
-51.602459
-59.924093
-69.421315
-78.753696
-86.045486
-89.262394
-86.712442
-77.536925
-62.025049
-41.624060
-18.621917
4.392578
25.100364
41.863177
53.872747
61.060035
63.879049
63.094514
59.645224
54.573468
48.960446
43.815170
39.915066
37.650508
36.946170
37.308086
37.992291
38.238394
37.485580
35.499191
32.374648
28.432020
24.050883
19.510586
14.894259
10.090543
4.890550
-0.861612
-7.132103
-13.640853
-19.922074
-25.488600
-30.037711
-33.613112
-36.653151
-39.898439
-44.178680
-50.130959
-57.918098
-67.021845
-76.184523
-83.556954
-87.065090
-84.930343
-76.196865
-61.080689
-40.996527
-18.234691
4.598170
25.168176
41.832212
53.781968
60.944028
63.758822
62.970366
59.495114
54.354124
48.606372
43.235847
38.997964
36.279419
35.037930
34.858214
35.108718
35.140468
34.456751
32.803765
30.171686
26.728833
22.725193
18.398315
13.904250
9.287312
4.495888
-0.557694
-5.911211
-11.476263
-17.013964
-22.189433
-26.696926
-30.409570
-33.488372
-36.395927
-39.793752
-44.339380
-50.429105
-57.953749
-66.146353
-73.596412
-78.473943
-78.942221
-73.657697
-62.196495
-45.248653
-24.498547
-2.233661
19.168264
37.690494
51.941452
61.215597
65.427472
65.017896
60.881350
54.289152
46.744401
39.732714
34.409335
31.332646
30.364121
30.792868
31.641800
32.027369
31.423303
29.731904
27.163511
24.013514
20.462652
16.496219
11.963819
6.726533
0.800196
-5.583497
-12.025897
-18.091888
-23.460204
-28.033433
-31.976001
-35.680674
-39.679292
-44.508598
-50.534016
-57.744875
-65.569385
-72.796950
-77.701926
-78.406854
-73.414635
-62.132354
-45.172061
-24.283408
-1.925353
19.357165
37.506413
51.274309
60.234241
64.575457
64.851758
61.822788
56.416102
49.731473
42.975236
37.269697
33.386417
31.529960
31.298419
31.864881
32.307582
31.936748
30.469993
27.992044
24.750321
20.920403
16.479559
11.253944
5.099402
-1.902335
-9.358207
-16.652011
-23.172875
-28.575504
-32.948544
-36.814503
-40.961456
-46.168857
-52.912576
-61.124734
-70.064351
-78.340255
-84.113746
-85.476290
-80.936593
-69.883038
-52.857000
-31.514898
-8.268250
14.278777
33.894246
49.098588
59.271894
64.528073
65.480204
63.023967
58.201489
52.128449
45.922414
40.581683
36.817749
34.900601
34.596239
35.248251
35.994673
36.046871
34.922668
32.542134
29.154176
25.137468
20.776346
16.121907
11.003500
5.178850
-1.459484
-8.732812
-16.165027
-23.127724
-29.082833
-33.819151
-37.582209
-41.040220
-45.087784
-50.537939
-57.783099
-66.519405
-75.629285
-83.296369
-87.372491
-85.929040
-77.834241
-63.154430
-43.218969
-20.310226
2.908824
24.012111
41.255587
53.735397
61.289929
64.280662
63.395380
59.542681
53.810049
47.403530
41.505866
37.061050
34.563089
33.949232
34.659246
35.846387
36.657435
36.474266
35.036154
32.420448
28.916907
24.863372
20.510010
15.953758
11.150839
5.988014
0.379045
-5.649901
-11.916909
-18.101104
-23.819844
-28.749326
-32.756146
-35.996724
-38.942218
-42.299423
-46.819471
-53.017740
-60.871023
-69.598214
-77.641835
-82.924526
-83.355751
-77.446571
-64.815239
-46.383529
-24.178243
-0.814754
21.132059
39.637726
53.473064
62.182398
65.911581
65.230724
61.032843
54.488855
46.974477
39.898003
34.435117
31.260497
30.396710
31.259288
32.890090
34.286827
34.698783
33.784903
31.599813
28.446701
24.680647
20.548383
16.119216
11.316621
6.019752
0.183047
-6.077174
-12.464813
-18.565028
-23.965012
-28.394051
-31.836143
-34.578165
-37.176982
-40.347433
-44.781241
-50.913237
-58.672391
-67.291217
-75.274159
-80.609035
-81.227687
-75.605185
-63.290601
-45.150749
-23.206899
-0.116156
21.494741
39.584099
52.960854
61.245657
64.657090
63.798503
59.552432
53.064952
45.711545
38.940147
33.979191
31.512948
31.484435
33.146228
35.361651
37.030493
37.449321
36.453575
34.303270
31.400724
28.001951
24.070496
19.335712
13.505739
6.508147
-1.375167
-9.550427
-17.309710
-24.087489
-29.661095
-34.219255
-38.290128
-42.576050
-47.756471
-54.295055
-62.256836
-71.144495
-79.802669
-86.478669
-89.116400
-85.873657
-75.724011
-58.911613
-37.042603
-12.734451
11.058357
31.775965
47.762629
58.401716
63.915022
65.010281
62.584972
57.599740
51.093070
44.212662
38.141944
33.887730
32.005431
32.403398
34.348936
36.705854
38.319142
38.387818
36.672096
33.460620
29.333658
24.845900
20.278420
15.564949
10.409439
4.522125
-2.150361
-9.316588
-16.407834
-22.791652
-28.033845
-32.091914
-35.359417
-38.550833
-42.481087
-47.818642
-54.871907
-63.434029
-72.695508
-81.249493
-87.238403
-88.681782
-83.960530
-72.334330
-54.300266
-31.619715
-6.957536
16.758264
37.023993
52.248608
61.899636
66.324910
66.400598
63.193493
57.762517
51.112601
44.222627
38.043220
33.402859
30.838583
30.432552
31.751984
33.949746
36.007516
37.033238
36.497244
34.319943
30.791585
26.376910
21.500642
16.406107
11.134483
5.611120
-0.222004
-6.301379
-12.414089
-18.252493
-23.516831
-28.014324
-31.715980
-34.762702
-37.439947
-40.146588
-43.363524
-47.596006
-53.247111
-60.403090
-68.578412
-76.543407
-82.382148
-83.864685
-79.076421
-67.095158
-48.435288
-25.045465
0.169311
24.118809
44.283075
59.171234
68.366820
72.248088
71.603699
67.357363
60.490201
52.096081
43.418795
35.746199
30.149134
27.175300
26.663929
27.802987
29.431829
30.465995
30.257361
28.734768
26.278633
23.410907
20.464225
17.393019
13.810976
9.224647
3.337479
-3.732855
-11.433190
-18.958830
-25.552670
-30.779684
-34.659322
-37.617842
-40.311710
-43.417727
-47.462707
-52.703413
-59.022244
-65.817990
-71.935930
-75.737706
-75.395146
-69.390867
-57.072463
-39.024772
-17.066114
6.166656
27.888959
45.827065
58.623746
65.895858
68.021960
65.838395
60.403855
52.888587
44.534358
36.585743
30.133958
25.902064
24.069410
24.238571
25.586456
27.148929
28.120442
28.044559
26.828213
24.601320
21.517491
17.611410
12.787378
6.937294
0.113034
-7.354768
-14.874910
-21.766686
-27.522727
-32.051018
-35.781438
-39.569856
-44.408275
-51.023292
-59.492499
-69.015714
-77.943007
-84.089373
-85.272164
-79.921024
-67.566400
-49.038707
-26.305748
-2.006725
21.149011
40.914218
55.819207
65.237612
69.275532
68.597439
64.267431
57.613689
50.075062
42.996801
37.397090
33.781139
32.088749
31.811031
32.230924
32.680127
32.700616
32.056829
30.629486
28.283882
24.811302
19.989690
13.729422
6.211401
-2.077754
-10.455204
-18.259724
-25.083863
-30.920943
-36.170906
-41.509427
-47.666593
-55.170278
-64.100009
-73.896141
-83.284500
-90.388384
-93.073787
-89.492412
-78.676752
-60.967072
-38.074294
-12.715361
12.060498
33.600581
50.165411
61.083773
66.576015
67.414241
64.614236
59.269998
52.514889
45.507638
39.344823
34.879753
32.519962
32.118550
33.040890
34.398679
35.353562
35.356238
34.222630
32.035169
28.946605
25.007468
20.116044
14.115041
6.973567
-1.057098
-9.416137
-17.373811
-24.295098
-29.916210
-34.508442
-38.843998
-43.952835
-50.734531
-59.541371
-69.869310
-80.278206
-88.609545
-92.481794
-89.939455
-80.051854
-63.248118
-41.257743
-16.676460
7.673864
29.350962
46.667095
58.770189
65.512202
67.257969
64.754909
59.081117
51.596177
43.800808
37.077182
32.382759
30.032830
29.685055
30.545213
31.702601
32.441120
32.393075
31.493206
29.797300
27.293114
23.820127
19.140570
13.112639
5.859098
-2.171139
-10.292813
-17.792469
-24.165895
-29.288227
-33.457511
-37.306904
-41.620908
-47.101644
-54.122559
-62.504428
-71.366772
-79.131026
-83.745281
-83.140683
-75.825724
-61.426815
-40.956960
-16.674108
8.447288
31.442297
50.010470
62.881131
69.820068
71.372829
68.529119
62.467851
54.436269
45.707315
37.515515
30.911766
26.563719
24.596469
24.571703
25.640494
26.815657
27.249793
26.410017
24.102972
20.383062
15.425898
9.444084
2.674450
-4.590528
-11.984890
-19.112253
-25.655897
-31.516090
-36.906336
-42.338761
-48.457782
-55.737840
-64.130435
-72.800970
-80.104454
-83.885758
-82.062763
-73.311309
-57.591968
-36.294511
-11.925061
12.544119
34.402623
51.738547
63.633767
70.042618
71.509913
68.905852
63.275225
55.783487
47.670256
40.132457
34.133212
30.207246
28.357624
28.100267
28.640879
29.109165
28.760384
27.087687
23.843651
19.008887
12.750751
5.391986
-2.622536
-10.788768
-18.652827
-25.952112
-32.739088
-39.420973
-46.659891
-55.117867
-65.094174
-76.171623
-87.029057
-95.555340
-99.303872
-96.183359
-85.153584
-66.655084
-42.587158
-15.832278
10.482542
33.696916
52.054573
64.779948
71.886125
73.904093
71.693820
66.377161
59.311658
51.985534
45.777077
41.636917
39.837767
39.932214
40.964707
41.855275
41.784192
40.409277
37.837359
34.396993
30.353656
25.724131
20.280092
13.723883
5.929926
-2.884468
-12.153435
-21.130025
-29.151607
-35.888242
-41.476605
-46.497678
-51.813696
-58.310342
-66.593195
-76.686984
-87.803917
-98.275754
-105.747922
-107.673946
-102.023079
-87.979402
-66.352558
-39.496365
-10.725909
16.554322
39.668293
57.128640
68.626496
74.670265
76.134980
73.964737
69.117675
62.662142
55.838010
49.938770
46.010691
44.509194
45.109501
46.805228
48.281256
48.401772
46.593997
42.962220
38.102087
32.729745
27.319773
21.923842
16.238374
9.861762
2.593073
-5.384885
-13.526014
-21.126456
-27.609471
-32.756217
-36.789071
-40.294795
-44.046936
-48.808595
-55.163470
-63.370646
-73.215104
-83.858712
-93.765218
-100.815591
-102.692855
-97.495962
-84.395609
-64.062445
-38.650008
-11.293371
14.699105
36.647452
53.001604
63.409875
68.428883
69.089112
66.536774
61.863958
56.097419
50.228423
45.173236
41.635405
39.933957
39.904471
40.950691
42.244910
42.995413
42.667143
41.071840
38.313507
34.645023
30.324199
25.537822
20.408136
15.044328
9.582516
4.177735
-1.046929
-6.053353
-10.897527
-15.678061
-20.449842
-25.156427
-29.631156
-33.683213
-37.240084
-40.484931
-43.918657
-48.291246
-54.380145
-62.643888
-72.842984
-83.777357
-93.302390
-98.718518
-97.483720
-88.030777
-70.375300
-46.247704
-18.669041
8.868237
33.284407
52.528212
65.750197
73.084768
75.256273
73.244740
68.132715
61.096966
53.412457
46.352025
40.965549
37.829844
36.904207
37.581950
38.927532
39.996160
40.100018
38.925041
36.486281
32.987378
28.678410
23.778157
18.467765
12.915310
7.283554
1.703970
-3.758855
-9.111379
-14.383826
-19.553569
-24.491778
-28.981497
-32.816710
-35.943746
-38.577559
-41.229797
-44.616565
-49.452814
-56.174009
-64.653295
-74.004828
-82.572000
-88.171965
-88.590377
-82.209237
-68.559446
-48.578973
-24.452644
0.922992
24.647997
44.436425
58.946463
67.782159
71.275873
70.223457
65.697245
58.953398
51.361570
44.272632
38.802396
35.595265
34.678334
35.490637
37.092811
38.478944
38.869735
37.882834
35.538229
32.128188
28.027478
23.525492
18.736701
13.608116
8.006694
1.844574
-4.810645
-11.688579
-18.358789
-24.357117
-29.354579
-33.308156
-36.535763
-39.680192
-43.559816
-48.934024
-56.230974
-65.297964
-75.245962
-84.464180
-90.858239
-92.302775
-87.209367
-75.032912
-56.524638
-33.615502
-8.956321
14.717250
35.161962
50.961441
61.563252
67.101958
68.162106
65.606407
60.498762
54.061157
47.577564
42.206058
38.742192
37.433384
37.938370
39.464654
41.037150
41.794969
41.208255
39.150621
35.827408
31.613489
26.876083
21.847594
16.583455
11.005465
5.002465
-1.456997
-8.246643
-15.071898
-21.536114
-27.264886
-32.046094
-35.936265
-39.296523
-42.742683
-47.011556
-52.756588
-60.297944
-69.375655
-78.987410
-87.411397
-92.485357
-92.123085
-84.930410
-70.700251
-50.579980
-26.824810
-2.225007
20.568419
39.570255
53.688219
62.656468
66.806647
66.836860
63.671124
58.397478
52.207897
46.274001
41.558113
38.625998
37.548610
37.942442
39.130574
40.355373
40.963982
40.516711
38.813852
35.867714
31.850168
27.031150
21.709480
16.138668
10.464852
4.705118
-1.212282
-7.351767
-13.659608
-19.900150
-25.688252
-30.622645
-34.472186
-37.334632
-39.691801
-42.325120
-46.108409
-51.731889
-59.424347
-68.739461
-78.469297
-86.742569
-91.340143
-90.199435
-81.993477
-66.600228
-45.273954
-20.420190
4.970240
28.030478
46.618807
59.625104
66.941161
69.198073
67.441073
62.876415
56.728984
50.166330
44.221367
39.681715
36.971518
36.084340
36.612435
37.873783
39.094232
39.584251
38.864239
36.722744
33.215103
28.615347
23.329913
17.784275
12.307555
7.053493
1.992949
-3.013049
-8.090153
-13.238297
-18.291020
-22.972510
-27.028078
-30.368069
-33.161622
-35.842826
-39.029656
-43.381274
-49.419785
-57.331863
-66.770507
-76.708698
-85.433717
-90.770450
-90.554761
-83.258177
-68.552605
-47.574628
-22.742527
2.837340
26.156364
44.982843
58.202406
65.762020
68.341437
66.966791
62.744245
56.767379
50.127558
43.906653
39.072426
36.287851
35.723485
36.981714
39.196711
41.291530
42.299254
41.627673
39.175352
35.269996
30.468765
25.309359
20.112145
14.905474
9.493120
3.624781
-2.811017
-9.661070
-16.510093
-22.817276
-28.130101
-32.280805
-35.480333
-38.276336
-41.404567
-45.598745
-51.412821
-59.068630
-68.314638
-78.299758
-87.520717
-93.942948
-95.368940
-90.019953
-77.155876
-57.474748
-33.081227
-6.987277
17.678210
38.438697
53.926816
63.903579
68.929522
69.919216
67.812172
63.471688
57.761659
51.647901
46.178212
42.295142
40.558060
40.923959
42.720547
44.853183
46.172235
45.849449
43.608284
39.722855
34.806098
29.497320
24.192955
18.931916
13.468558
7.480080
0.798181
-6.448698
-13.846828
-20.850705
-27.000787
-32.104280
-36.307695
-40.050789
-43.946399
-48.646055
-54.718490
-62.520046
-72.021164
-82.596648
-92.869600
-100.755834
-103.820475
-99.921803
-87.945229
-68.326750
-43.108107
-15.454416
11.192912
33.991222
51.266565
62.611628
68.577044
70.189428
68.550962
64.661368
59.438157
53.798175
48.660226
44.816847
42.733772
42.397412
43.312279
44.669316
45.614630
45.501273
44.026227
41.220479
37.330750
32.670316
27.508639
22.029228
16.343547
10.528094
4.654894
-1.196972
-6.944041
-12.504044
-17.797742
-22.749928
-27.299210
-31.425330
-35.194869
-38.815691
-42.678023
-47.345798
-53.454762
-61.489918
-71.465960
-82.611825
-93.223482
-100.841168
-102.799501
-97.022634
-82.779788
-61.077788
-34.491509
-6.473417
19.582464
41.146237
56.939609
66.842392
71.486268
71.811612
68.803293
63.453097
56.834946
50.122947
44.453408
40.667414
39.072969
39.370651
40.797728
42.424389
43.459000
43.429114
42.187331
39.790549
36.356953
31.989454
26.789121
20.915728
14.625041
8.236710
2.041811
-3.794290
-9.269977
-14.497371
-19.590478
-24.558276
-29.271285
-33.532454
-37.227228
-40.482845
-43.753731
-47.770738
-53.336105
-60.998755
-70.696076
-81.488613
-91.522396
-98.307465
-99.296762
-92.617568
-77.708712
-55.613575
-28.794015
-0.521100
25.927907
47.971491
64.105439
73.913182
77.817362
76.758497
71.947248
64.729883
56.509930
48.642255
42.263438
38.098106
36.325882
36.579380
38.085361
39.897503
41.136479
41.165242
39.668018
36.641657
32.327779
27.112205
21.409711
15.552475
9.709813
3.871256
-2.089650
-8.289329
-14.702749
-21.097286
-27.078514
-32.241536
-36.366371
-39.569325
-42.340308
-45.446620
-49.732223
-55.862786
-64.065479
-73.910850
-84.195796
-93.000647
-97.980280
-96.884115
-88.193223
-71.667626
-48.579316
-21.500690
6.305770
31.680310
52.252342
66.796179
75.196684
78.137705
76.714781
72.144399
65.631770
58.345228
51.394428
45.738899
42.029929
40.456394
40.684097
41.942070
43.242157
43.658171
42.567989
39.780533
35.515297
30.255050
24.533210
18.735201
12.985965
7.164523
1.036288
-5.557711
-12.545100
-19.580381
-26.146326
-31.757901
-36.177352
-39.545033
-42.373874
-45.419771
-49.485548
-55.216819
-62.915381
-72.369347
-82.712791
-92.375598
-99.219248
-100.925116
-95.595433
-82.391406
-61.954247
-36.399613
-8.840591
17.399676
39.589027
56.112959
66.582502
71.574155
72.194187
69.682200
65.183740
59.695900
54.098483
49.167627
45.518867
43.497788
43.083882
43.874596
45.179162
46.199907
46.239468
44.863837
41.972710
37.765460
32.626342
26.975706
21.139264
15.275131
9.375695
3.335773
-2.943929
-9.461776
-16.070258
-22.503219
-28.464768
-33.741001
-38.287748
-42.264146
-46.012566
-50.006709
-54.781925
-60.831728
-68.435139
-77.407444
-86.845285
-95.017525
-99.561838
-98.040972
-88.726375
-71.313012
-47.237395
-19.413212
8.543731
33.292699
52.554900
65.432603
72.226329
73.947310
71.819000
66.987848
60.485488
53.322197
46.538691
41.111384
37.734003
36.600087
37.325679
39.076845
40.854813
41.810451
41.452724
39.680663
36.663230
32.660885
27.890717
22.489102
16.558972
10.242803
3.759846
-2.619020
-8.640777
-14.138960
-19.060311
-23.437585
-27.331700
-30.785573
-33.826396
-36.527007
-39.101464
-41.979213
-45.790330
-51.209964
-58.659884
-67.943419
-77.965943
-86.717492
-91.627738
-90.251308
-81.068125
-64.084931
-40.969642
-14.637502
11.549719
34.642642
52.691146
64.891551
71.356265
72.731260
69.898938
63.878766
55.867970
47.262937
39.528204
33.903113
31.067195
30.939251
32.730642
35.246462
37.304696
38.092129
37.319986
35.150145
31.970258
28.148363
23.878754
19.163627
13.902146
8.017745
1.557082
-5.275429
-12.148941
-18.682355
-24.538008
-29.509641
-33.589048
-37.002081
-40.205319
-43.829298
-48.550348
-54.881538
-62.904953
-72.020071
-80.828572
-87.273689
-89.077555
-84.387793
-72.416522
-53.810787
-30.577506
-5.570773
18.256455
38.537170
53.867416
63.804569
68.604413
68.910334
65.566089
59.587738
52.196275
44.767394
38.622051
34.707888
33.319698
34.014930
35.792919
37.474337
38.115585
37.279226
35.059847
31.886162
28.220544
24.310573
20.103356
15.340909
9.763902
3.307224
-3.809660
-11.131785
-18.122679
-24.346906
-29.605813
-33.988399
-37.845081
-41.714852
-46.225399
-51.958494
-59.259962
-68.000687
-77.358699
-85.749419
-91.026544
-90.983057
-84.030496
-69.806604
-49.441543
-25.334022
-0.503153
22.221676
40.842741
54.439398
63.002672
67.046126
67.253810
64.339934
59.117216
52.619949
46.097481
40.795776
37.602830
36.742490
37.694800
39.406589
40.704083
40.718249
39.135271
36.181107
32.382708
28.246009
24.009928
19.579183
14.641570
8.888951
2.225196
-5.135504
-12.717266
-19.946322
-26.352208
-31.724611
-36.176656
-40.111228
-44.119062
-48.840588
-54.804250
-62.238222
-70.867060
-79.751750
-87.276442
-91.378193
-90.033073
-81.880679
-66.760273
-45.919660
-21.771608
2.732793
24.869834
42.746644
55.534273
63.313397
66.697197
66.469369
63.408856
58.319727
52.143967
45.989759
40.977631
37.941098
37.131404
38.098533
39.839448
41.167304
41.141262
39.366278
36.037691
31.730756
27.055704
22.353484
17.573577
12.376927
6.394976
-0.496790
-8.033143
-15.614752
-22.536315
-28.275932
-32.712665
-36.183267
-39.370179
-43.084530
-48.030021
-54.603281
-62.741101
-71.809675
-80.559643
-87.212794
-89.748259
-86.386813
-76.155356
-59.320542
-37.483289
-13.247325
10.438399
31.013275
46.835486
57.340464
62.843477
64.157979
62.248031
58.056377
52.508279
46.576657
41.270685
37.481879
35.736709
35.988008
37.580204
39.445031
40.467978
39.874290
37.466866
33.616564
29.020670
24.349677
19.948825
15.727496
11.274348
6.128509
0.067389
-6.730651
-13.724495
-20.224714
-25.677605
-29.888067
-33.091551
-35.865980
-38.947159
-43.033439
-48.630369
-55.928440
-64.678813
-74.063808
-82.629900
-88.398700
-89.237689
-83.450739
-70.399305
-50.885242
-27.085438
-2.016465
21.272140
40.449662
54.314416
62.759554
66.411908
66.193237
63.031563
57.805776
51.439096
44.970823
39.474704
35.816805
34.370556
34.856327
36.418933
37.933295
38.409323
37.317142
34.695473
31.013113
26.868638
22.680141
18.507912
14.080101
8.992979
2.978785
-3.891977
-11.171916
-18.181894
-24.275399
-29.105535
-32.781090
-35.851474
-39.134750
-43.459746
-49.405371
-57.092949
-66.054820
-75.194895
-82.871197
-87.136823
-86.144398
-78.644420
-64.425883
-44.519567
-21.048903
3.248009
25.659121
44.068957
57.273987
64.991659
67.651340
66.123328
61.510909
55.036818
47.969329
41.509818
36.611727
33.779149
32.942950
33.498971
34.522608
35.086352
34.552018
32.718425
29.773437
26.091838
21.990155
17.562240
12.671143
7.090431
0.712185
-6.294306
-13.463459
-20.175057
-25.901226
-30.452974
-34.117638
-37.621546
-41.916584
-47.847442
-55.792380
-65.382716
-75.398386
-83.907909
-88.663032
-87.671647
-79.784809
-65.092846
-44.970554
-21.740058
1.923410
23.613236
41.617431
55.041012
63.673939
67.761070
67.830875
64.645177
59.214316
52.761860
46.558870
41.649600
38.584245
37.296067
37.196339
37.450238
37.305417
36.324810
34.433219
31.787350
28.565765
24.803279
20.355269
15.000350
8.615943
1.325484
-6.466102
-14.173600
-21.228730
-27.291755
-32.394652
-36.966028
-41.732159
-47.519206
-54.992121
-64.370463
-75.178247
-86.114068
-95.142083
-99.866323
-98.145984
-88.776440
-71.977340
-49.461740
-24.017735
1.250901
23.721445
41.774360
54.877410
63.291402
67.629020
68.526312
66.566324
62.409397
56.951576
51.326935
46.684787
43.830783
42.923804
43.408928
44.247054
44.343678
42.975041
40.015026
35.871940
31.192078
26.497730
21.944548
17.305303
12.163005
6.193238
-0.617292
-7.923049
-15.157000
-21.777173
-27.502918
-32.440501
-37.060215
-42.052931
-48.127087
-55.797164
-65.185396
-75.848379
-86.664953
-95.860201
-101.247927
-100.712756
-92.831356
-77.416544
-55.742082
-30.309072
-4.209365
19.672061
39.301273
53.758777
63.092421
67.923815
69.055325
67.262611
63.304028
58.034405
52.459113
47.624132
44.361106
43.012847
43.293428
44.377159
45.198574
44.840864
42.845995
39.316745
34.778260
29.876305
25.059911
20.395503
15.590246
10.198904
3.901915
-3.285804
-10.974795
-18.543087
-25.387332
-31.165760
-35.931271
-40.115158
-44.392182
-49.493130
-56.016457
-64.250976
-74.000264
-84.424896
-93.976700
-100.534165
-101.807552
-95.962266
-82.266566
-61.494961
-35.877186
-8.565452
17.189143
38.827688
54.948254
65.323222
70.563233
71.660641
69.642881
65.444922
59.955612
54.097914
48.812934
44.908809
42.840757
42.545375
43.434739
44.578661
45.010305
44.031896
41.400603
37.331764
32.335807
26.971210
21.622322
16.389280
11.121458
5.562516
-0.469889
-6.955083
-13.647294
-20.164504
-26.140259
-31.365123
-35.859351
-39.862708
-43.771170
-48.063329
-53.233486
-59.704506
-67.672934
-76.875896
-86.355498
-94.373297
-98.624389
-96.788505
-87.276300
-69.882621
-46.045156
-18.556862
9.175230
34.024576
53.835970
67.679982
75.669256
78.537421
77.247223
72.802631
66.263960
58.823398
51.772986
46.290609
43.114437
42.277712
43.071221
44.293462
44.699514
43.452156
40.372813
35.888036
30.716057
25.461078
20.319638
15.037115
9.119764
2.177949
-5.785573
-14.293814
-22.561171
-29.821821
-35.661062
-40.199135
-44.058135
-48.144878
-53.347878
-60.248508
-68.904433
-78.722224
-88.429518
-96.180318
-99.838361
-97.442401
-87.764420
-70.779239
-47.842169
-21.457420
5.312911
29.586175
49.266018
63.317674
71.681646
74.962409
74.097970
70.159336
64.296921
57.736373
51.701616
47.214764
44.835054
44.474947
45.419900
46.582812
46.900365
45.698723
42.865975
38.763682
33.938849
28.792798
23.376575
17.410100
10.503420
2.454521
-6.537998
-15.862365
-24.695304
-32.329961
-38.486024
-43.469100
-48.112547
-53.517859
-60.671548
-70.042694
-81.266956
-93.014346
-103.116472
-108.978203
-108.211562
-99.327569
-82.256118
-58.487101
-30.750987
-2.338430
23.691845
45.131174
60.878605
70.830989
75.556714
75.959051
73.070862
67.993629
61.888986
55.913142
51.051753
47.907973
46.552046
46.523646
47.005071
47.101480
46.117943
43.731931
40.013082
35.307320
30.048425
24.574818
19.016243
13.284545
7.165246
0.471137
-6.805569
-14.410754
-21.861258
-28.592793
-34.172978
-38.498850
-41.900460
-45.106618
-49.076739
-54.738218
-62.681751
-72.870851
-84.433887
-95.623801
-104.025511
-107.036272
-102.538873
-89.572131
-68.747316
-42.217284
-13.172272
14.962803
39.327313
58.136347
70.774936
77.546930
79.286042
77.039591
71.924945
65.117136
57.843764
51.283819
46.361649
43.523540
42.620669
42.978657
43.640670
43.686378
42.498985
39.886297
36.034145
31.341430
26.223462
20.963263
15.652830
10.223922
4.538086
-1.506314
-7.888511
-14.428820
-20.815167
-26.688663
-31.765546
-35.959308
-39.463141
-42.761000
-46.551787
-51.586782
-58.434174
-67.204116
-77.300626
-87.302393
-95.079745
-98.199574
-94.556293
-83.040628
-63.992468
-39.236474
-11.662066
15.496145
39.399536
58.107602
70.723146
77.241859
78.279029
74.837838
68.182633
59.767558
51.123907
43.651921
38.353335
35.611684
35.131587
36.084045
37.409810
38.160261
37.743068
35.990307
33.050166
29.180093
24.554986
19.184031
12.967377
5.850290
-2.017364
-10.211547
-18.105534
-25.064266
-30.682938
-34.969140
-38.392519
-41.778827
-46.076157
-52.050451
-59.976605
-69.396665
-79.024640
-86.873582
-90.639074
-88.284599
-78.667123
-61.977444
-39.804798
-14.772590
10.127912
32.250312
49.792293
61.944856
68.734076
70.727547
68.788186
63.959975
57.441468
50.532408
44.469422
40.169025
37.992182
37.664976
38.420175
39.307449
39.526560
38.628062
36.506474
33.229746
28.836133
23.236778
16.285552
7.965512
-1.436654
-11.295837
-20.804328
-29.262997
-36.376401
-42.412388
-48.144860
-54.585581
-62.585200
-72.423038
-83.511148
-94.319947
-102.590419
-105.825380
-101.956388
-89.992743
-70.423292
-45.201176
-17.291161
10.064033
34.087554
52.963851
65.960790
73.232667
75.483824
73.682546
68.920017
62.382242
55.327403
48.976913
44.310647
41.842378
41.487067
42.599738
44.187657
45.219947
44.920963
42.946994
39.397880
34.679871
29.287166
23.591202
17.716902
11.549669
4.864916
-2.480593
-10.386192
-18.456468
-26.099805
-32.747582
-38.107492
-42.343690
-46.102052
-50.356959
-56.117269
-64.067531
-74.232767
-85.755933
-96.873318
-105.151171
-107.987607
-103.286874
-90.112313
-69.079990
-42.316277
-12.963521
15.594368
40.498855
59.910149
73.109086
80.279029
82.162575
79.783428
74.313966
67.039164
59.303390
52.359754
47.136351
44.019238
42.771115
42.647691
42.677955
41.995987
40.091460
36.890973
32.663892
27.819332
22.694162
17.419782
11.910453
5.961800
-0.592993
-7.739289
-15.212117
-22.536620
-29.170832
-34.702710
-39.028757
-42.444759
-45.608782
-49.378276
-54.557168
-61.605424
-70.371583
-79.920556
-88.538520
-93.980124
-93.959475
-86.782914
-71.924606
-50.319170
-24.227744
3.296498
29.144320
50.810688
66.763711
76.469763
80.187407
78.712872
73.205786
65.100047
56.007427
47.519872
40.906549
36.812644
35.114191
35.029689
35.463896
35.435535
34.394476
32.293860
29.413122
26.055662
22.300258
17.939800
12.626652
6.129280
-1.451245
-9.628637
-17.674140
-24.885046
-30.853993
-35.625911
-39.692309
-43.843531
-48.937537
-55.638737
-64.159260
-74.034275
-83.993551
-92.024095
-95.704275
-92.800084
-81.975222
-63.355978
-38.692695
-11.000345
16.215812
39.854165
57.887009
69.587363
75.316513
76.072170
73.059576
67.458076
60.388332
52.954359
46.215394
41.030902
37.845269
36.549098
36.526307
36.892144
36.814626
35.762852
33.570762
30.313901
26.101073
20.922261
14.648962
7.182763
-1.347518
-10.475569
-19.466262
-27.559045
-34.287057
-39.727228
-44.557900
-49.871539
-56.777288
-65.904196
-76.965045
-88.551580
-98.288483
-103.367430
-101.336839
-90.892627
-72.371638
-47.739445
-20.064884
7.308308
31.560436
50.875249
64.494461
72.460264
75.281208
73.723227
68.779277
61.714428
54.022539
47.201099
42.394249
40.068968
39.902135
40.957464
42.081721
42.337972
41.279853
38.960479
35.710232
31.829644
27.371293
22.120504
15.767980
8.164062
-0.493062
-9.640083
-18.512964
-26.414187
-32.964901
-38.245331
-42.786633
-47.434999
-53.131187
-60.638755
-70.244346
-81.473986
-92.920012
-102.309827
-106.911559
-104.243559
-92.885565
-73.078182
-46.829992
-17.439608
11.399727
36.552081
56.072927
69.328262
76.667633
78.922365
77.028220
71.925059
64.670182
56.556697
49.040351
43.428816
40.469808
40.069455
41.321771
42.867657
43.425136
42.243037
39.276158
35.028888
30.178856
25.187003
20.085903
14.532516
8.074371
0.477442
-8.055883
-16.887171
-25.159663
-32.131496
-37.476131
-41.425923
-44.710594
-48.328418
-53.240532
-60.076542
-68.901120
-79.061129
-89.138952
-97.065566
-100.450674
-97.127192
-85.793848
-66.537600
-41.003977
-12.095750
16.721600
42.251447
62.224332
75.574701
82.325400
83.245106
79.500086
72.442784
63.535876
54.302854
46.191230
40.324120
37.229516
36.693389
37.843841
39.462107
40.398325
39.913616
37.807322
34.297926
29.748411
24.397224
18.238845
11.106755
2.897145
-6.206691
-15.651517
-24.640702
-32.427671
-38.645722
-43.520477
-47.859858
-52.806922
-59.427383
-68.255454
-78.935379
-90.080369
-99.429193
-104.309784
-102.321322
-92.046967
-73.557312
-48.507416
-19.771584
9.258486
35.453829
56.535585
71.314347
79.602951
81.957219
79.417513
73.337258
65.269454
56.822849
49.433242
44.090172
41.136027
40.249960
40.643022
41.380057
41.678049
41.051957
39.274780
36.227518
31.769765
25.732097
18.038998
8.875220
-1.229886
-11.483837
-21.068139
-29.431346
-36.504802
-42.745466
-48.988972
-56.165712
-64.961212
-75.496783
-87.097017
-98.214836
-106.588789
-109.674834
-105.301878
-92.375100
-71.368274
-44.376337
-14.656798
14.191933
39.103078
58.140041
70.643976
76.977775
78.087087
75.128632
69.303013
61.859197
54.123140
47.408690
42.776148
40.735291
41.059877
42.844921
44.818413
45.787404
45.027111
42.446273
38.469898
33.715710
28.632806
23.278758
17.336616
10.352715
2.067563
-7.332887
-17.179753
-26.529536
-34.533407
-40.806403
-45.635805
-49.939369
-54.984256
-61.956264
-71.501362
-83.357707
-96.180270
-107.639842
-114.836105
-114.979672
-106.183021
-88.107732
-62.212960
-31.472962
0.359149
29.670755
53.751578
71.154488
81.620193
85.729301
84.524167
79.272478
71.390889
62.419335
53.913477
47.206788
43.115760
41.733302
42.431822
44.098438
45.512922
45.717157
44.240623
41.121375
36.750018
31.624853
26.122454
20.365494
14.225989
7.452664
-0.133181
-8.457042
-17.109828
-25.415969
-32.640380
-38.260597
-42.197149
-44.909722
-47.320212
-50.584412
-55.770299
-63.508438
-73.678785
-85.208940
-96.077352
-103.604220
-105.037353
-98.310756
-82.731982
-59.324307
-30.657884
-0.212019
28.487281
52.626695
70.515584
81.593872
86.174231
85.133501
79.705746
71.388819
61.863892
52.818156
45.650648
41.156813
39.345210
39.498792
40.477406
41.137257
40.687179
38.840095
35.725597
31.645387
26.819170
21.255262
14.800110
7.320652
-1.095420
-10.041982
-18.862192
-26.857748
-33.547465
-38.863900
-43.210817
-47.366369
-52.268125
-58.733572
-67.162714
-77.267109
-87.892645
-97.035106
-102.141464
-100.707763
-91.039783
-72.910645
-47.825282
-18.732317
10.737914
37.209795
58.299549
72.899151
80.999006
83.265744
80.662457
74.288425
65.413890
55.534113
46.262632
39.017883
34.630012
33.085789
33.577614
34.860281
35.748904
35.516678
34.013152
31.481984
28.217455
24.272960
19.388175
13.166951
5.392630
-3.709144
-13.420428
-22.739741
-30.760650
-37.046295
-41.830094
-45.956196
-50.584821
-56.768880
-65.032397
-75.061572
-85.587252
-94.510430
-99.288164
-97.534224
-87.699088
-69.618617
-44.719491
-15.771594
13.749471
40.465757
61.783038
76.254689
83.585496
84.392086
79.895641
71.669835
61.459339
51.008096
41.841992
35.021619
30.954123
29.365820
29.473920
30.297073
30.972849
30.949754
29.993223
28.046301
25.056901
20.887618
15.362726
8.416929
0.245180
-8.649689
-17.558340
-25.782619
-32.878600
-38.825474
-44.057095
-49.344865
-55.558496
-63.346380
-72.791048
-83.127277
-92.645505
-98.898610
-99.250327
-91.656242
-75.418720
-51.601862
-22.893845
7.067054
34.644829
57.058450
72.827822
81.728190
