,BVP_1
0,35.13
1,36.54
2,37.81
3,38.04
4,36.67
5,33.62
6,29.31
7,24.42
8,19.61
9,15.25
10,11.26
11,7.24
12,2.71
13,-2.62
14,-8.61
15,-14.77
16,-20.43
17,-25.07
18,-28.54
19,-31.14
20,-33.51
21,-36.33
22,-40.16
23,-45.29
24,-51.77
25,-59.32
26,-67.26
27,-74.39
28,-78.98
29,-79.11
30,-73.25
31,-60.88
32,-42.88
33,-21.43
34,0.6
35,20.49
36,36.39
37,47.66
38,54.63
39,58.17
40,59.16
41,58.25
42,55.93
43,52.63
44,48.95
45,45.59
46,43.25
47,42.35
48,42.81
49,44.09
50,45.38
51,45.85
52,44.99
53,42.67
54,39.07
55,34.57
56,29.57
57,24.36
58,19.13
59,13.96
60,8.85
61,3.76
62,-1.33
63,-6.39
64,-11.36
65,-16.09
66,-20.45
67,-24.36
68,-27.85
69,-31.04
70,-34.13
71,-37.36
72,-41.01
73,-45.49
74,-51.16
75,-58.12
76,-65.78
77,-72.72
78,-76.8
79,-75.8
80,-68.23
81,-54.07
82,-34.9
83,-13.45
84,7.3
85,25.03
86,38.56
87,47.81
88,53.32
89,55.75
90,55.6
91,53.22
92,49.06
93,43.86
94,38.63
95,34.46
96,32.16
97,31.9
98,33.16
99,34.91
100,36.02
101,35.66
102,33.62
103,30.28
104,26.33
105,22.38
106,18.7
107,15.11
108,11.25
109,6.81
110,1.75
111,-3.65
112,-8.96
113,-13.81
114,-18.07
115,-21.82
116,-25.3
117,-28.7
118,-32.14
119,-35.66
120,-39.37
121,-43.58
122,-48.65
123,-54.76
124,-61.48
125,-67.53
126,-70.94
127,-69.6
128,-62.14
129,-48.57
130,-30.41
131,-10.27
132,9.07
133,25.52
134,38.11
135,46.85
136,52.21
137,54.61
138,54.25
139,51.27
140,46.18
141,40.01
142,34.2
143,30.12
144,28.55
145,29.35
146,31.53
147,33.67
148,34.51
149,33.44
150,30.61
151,26.74
152,22.63
153,18.79
154,15.16
155,11.28
156,6.6
157,0.84
158,-5.77
159,-12.53
160,-18.67
161,-23.62
162,-27.28
163,-30.05
164,-32.53
165,-35.34
166,-38.94
167,-43.57
168,-49.34
169,-56.13
170,-63.39
171,-70
172,-74.27
173,-74.29
174,-68.56
175,-56.64
176,-39.48
177,-19.24
178,1.35
179,19.8
180,34.52
181,44.99
182,51.49
183,54.68
184,55.18
185,53.42
186,49.85
187,45.11
188,40.17
189,36.12
190,33.84
191,33.57
192,34.8
193,36.46
194,37.35
195,36.66
196,34.23
197,30.52
198,26.33
199,22.29
200,18.6
201,14.91
202,10.63
203,5.27
204,-1.22
205,-8.31
206,-15.14
207,-20.85
208,-25.01
209,-27.84
210,-30.04
211,-32.53
212,-36.04
213,-40.97
214,-47.28
215,-54.57
216,-62.1
217,-68.74
218,-72.91
219,-72.88
220,-67.17
221,-55.24
222,-37.9
223,-17.25
224,3.85
225,22.68
226,37.48
227,47.67
228,53.72
229,56.54
230,56.97
231,55.54
232,52.57
233,48.43
234,43.76
235,39.44
236,36.32
237,34.92
238,35.23
239,36.68
240,38.31
241,39.13
242,38.42
243,35.92
244,31.88
245,26.87
246,21.55
247,16.43
248,11.66
249,7.11
250,2.47
251,-2.5
252,-7.83
253,-13.27
254,-18.42
255,-22.89
256,-26.53
257,-29.51
258,-32.21
259,-35.13
260,-38.69
261,-43.14
262,-48.58
263,-54.99
264,-62.09
265,-69.19
266,-74.96
267,-77.53
268,-74.96
269,-65.95
270,-50.48
271,-30.08
272,-7.49
273,14.23
274,32.54
275,46.09
276,54.72
277,59.12
278,60.23
279,58.86
280,55.61
281,51.07
282,45.96
283,41.19
284,37.66
285,35.96
286,36.11
287,37.53
288,39.24
289,40.18
290,39.61
291,37.31
292,33.59
293,29.08
294,24.43
295,20.08
296,16.06
297,12.13
298,7.86
299,2.97
300,-2.57
301,-8.43
302,-14.1
303,-19.07
304,-23.1
305,-26.27
306,-29
307,-31.79
308,-35.04
309,-38.99
310,-43.76
311,-49.38
312,-55.8
313,-62.61
314,-68.8
315,-72.73
316,-72.44
317,-66.35
318,-53.96
319,-36.32
320,-15.76
321,4.78
322,22.75
323,36.61
324,46.02
325,51.42
326,53.54
327,52.96
328,50.08
329,45.38
330,39.69
331,34.2
332,30.14
333,28.39
334,29.03
335,31.3
336,33.86
337,35.37
338,34.98
339,32.62
340,28.9
341,24.7
342,20.69
343,17.03
344,13.39
345,9.16
346,3.89
347,-2.41
348,-9.2
349,-15.59
350,-20.78
351,-24.38
352,-26.66
353,-28.38
354,-30.51
355,-33.88
356,-38.86
357,-45.37
358,-52.86
359,-60.39
360,-66.69
361,-70.19
362,-69.35
363,-63.07
364,-51.13
365,-34.5
366,-15.2
367,4.23
368,21.42
369,34.8
370,43.79
371,48.68
372,50.18
373,49.08
374,46.1
375,41.92
376,37.29
377,33.06
378,30.01
379,28.64
380,28.94
381,30.4
382,32.13
383,33.14
384,32.73
385,30.63
386,27.07
387,22.64
388,18.03
389,13.71
390,9.71
391,5.68
392,1.07
393,-4.56
394,-11.16
395,-18.15
396,-24.62
397,-29.69
398,-33
399,-34.89
400,-36.27
401,-38.28
402,-41.85
403,-47.38
404,-54.64
405,-62.83
406,-70.59
407,-76.19
408,-77.79
409,-73.85
410,-63.64
411,-47.69
412,-27.73
413,-6.39
414,13.63
415,30.28
416,42.53
417,50.36
418,54.36
419,55.28
420,53.78
421,50.47
422,46.07
423,41.42
424,37.43
425,34.79
426,33.78
427,34.14
428,35.25
429,36.26
430,36.44
431,35.28
432,32.6
433,28.54
434,23.5
435,18.01
436,12.59
437,7.56
438,2.93
439,-1.6
440,-6.43
441,-11.84
442,-17.72
443,-23.6
444,-28.76
445,-32.67
446,-35.23
447,-36.9
448,-38.52
449,-41
450,-44.97
451,-50.61
452,-57.49
453,-64.65
454,-70.66
455,-73.84
456,-72.6
457,-65.86
458,-53.44
459,-36.28
460,-16.27
461,4.17
462,22.74
463,37.78
464,48.47
465,54.81
466,57.32
467,56.81
468,54.16
469,50.31
470,46.13
471,42.4
472,39.69
473,38.23
474,37.95
475,38.47
476,39.21
477,39.57
478,39.04
479,37.31
480,34.32
481,30.26
482,25.53
483,20.55
484,15.71
485,11.2
486,6.95
487,2.74
488,-1.75
489,-6.71
490,-12.06
491,-17.49
492,-22.5
493,-26.64
494,-29.77
495,-32.07
496,-34.1
497,-36.52
498,-39.96
499,-44.79
500,-51.04
501,-58.29
502,-65.63
503,-71.64
504,-74.56
505,-72.68
506,-64.88
507,-51.2
508,-32.94
509,-12.46
510,7.47
511,24.49
512,37.17
513,45.13
514,48.88
515,49.29
516,47.32
517,43.79
518,39.38
519,34.77
520,30.6
521,27.45
522,25.77
523,25.68
524,26.93
525,28.88
526,30.64
527,31.32
528,30.32
529,27.53
530,23.32
531,18.45
532,13.64
533,9.34
534,5.49
535,1.65
536,-2.68
537,-7.75
538,-13.37
539,-18.95
540,-23.8
541,-27.46
542,-29.92
543,-31.62
544,-33.26
545,-35.52
546,-38.85
547,-43.43
548,-49.2
549,-55.85
550,-62.72
551,-68.64
552,-71.98
553,-70.97
554,-64.31
555,-51.78
556,-34.52
557,-14.8
558,4.65
559,21.49
560,34.33
561,42.91
562,47.68
563,49.41
564,48.71
565,46.07
566,41.95
567,37.06
568,32.29
569,28.61
570,26.69
571,26.61
572,27.87
573,29.46
574,30.32
575,29.67
576,27.23
577,23.32
578,18.64
579,13.9
580,9.56
581,5.64
582,1.73
583,-2.68
584,-7.95
585,-13.98
586,-20.23
587,-25.91
588,-30.39
589,-33.47
590,-35.52
591,-37.26
592,-39.56
593,-43.08
594,-48.14
595,-54.67
596,-62.12
597,-69.43
598,-75.1
599,-77.35
600,-74.6
601,-65.93
602,-51.53
603,-32.84
604,-12.17
605,7.87
606,25.13
607,38.31
608,47.14
609,52.07
610,53.9
611,53.47
612,51.42
613,48.34
614,44.77
615,41.29
616,38.5
617,36.83
618,36.41
619,36.92
620,37.75
621,38.12
622,37.38
623,35.21
624,31.62
625,26.96
626,21.73
627,16.44
628,11.39
629,6.64
630,1.98
631,-2.89
632,-8.22
633,-14
634,-19.89
635,-25.37
636,-30
637,-33.6
638,-36.43
639,-39.08
640,-42.2
641,-46.29
642,-51.6
643,-58.09
644,-65.41
645,-72.84
646,-79.16
647,-82.69
648,-81.61
649,-74.52
650,-61.08
651,-42.36
652,-20.64
653,1.17
654,20.45
655,35.53
656,45.92
657,52.09
658,55
659,55.58
660,54.52
661,52.32
662,49.43
663,46.36
664,43.68
665,41.88
666,41.2
667,41.5
668,42.31
669,42.97
670,42.8
671,41.37
672,38.54
673,34.54
674,29.82
675,24.87
676,20.05
677,15.49
678,11.04
679,6.49
680,1.67
681,-3.38
682,-8.41
683,-13.11
684,-17.28
685,-20.93
686,-24.34
687,-27.85
688,-31.73
689,-36.02
690,-40.65
691,-45.52
692,-50.77
693,-56.69
694,-63.43
695,-70.54
696,-76.65
697,-79.64
698,-77.26
699,-68.13
700,-52.43
701,-32.06
702,-10.07
703,10.46
704,27.35
705,39.75
706,47.98
707,52.83
708,55
709,54.9
710,52.74
711,48.96
712,44.39
713,40.12
714,37.2
715,36.17
716,36.86
717,38.5
718,40.06
719,40.68
720,39.95
721,37.95
722,35.07
723,31.71
724,28.12
725,24.28
726,20.03
727,15.26
728,10.06
729,4.67
730,-0.6
731,-5.52
732,-10.07
733,-14.36
734,-18.55
735,-22.67
736,-26.6
737,-30.19
738,-33.36
739,-36.27
740,-39.36
741,-43.25
742,-48.56
743,-55.53
744,-63.73
745,-71.84
746,-77.78
747,-79.27
748,-74.57
749,-63.21
750,-46.29
751,-26.18
752,-5.68
753,12.84
754,28.06
755,39.65
756,47.85
757,52.93
758,54.96
759,53.95
760,50.3
761,45.02
762,39.59
763,35.46
764,33.5
765,33.66
766,35.05
767,36.45
768,36.88
769,35.91
770,33.7
771,30.68
772,27.29
773,23.69
774,19.79
775,15.39
776,10.41
777,4.92
778,-0.83
779,-6.5
780,-11.78
781,-16.48
782,-20.55
783,-24.08
784,-27.23
785,-30.2
786,-33.26
787,-36.69
788,-40.89
789,-46.2
790,-52.72
791,-59.98
792,-66.72
793,-71.04
794,-70.87
795,-64.77
796,-52.48
797,-35.26
798,-15.47
799,4.24
800,21.69
801,35.73
802,46.16
803,53.28
804,57.39
805,58.66
806,57.16
807,53.28
808,47.93
809,42.39
810,38
811,35.57
812,35.15
813,35.97
814,36.87
815,36.75
816,35.07
817,31.87
818,27.71
819,23.27
820,18.99
821,14.94
822,10.84
823,6.34
824,1.17
825,-4.56
826,-10.48
827,-16.1
828,-21
829,-25.04
830,-28.34
831,-31.25
832,-34.14
833,-37.32
834,-41.08
835,-45.7
836,-51.45
837,-58.38
838,-65.98
839,-72.99
840,-77.41
841,-77.05
842,-70.33
843,-56.98
844,-38.36
845,-17.06
846,3.93
847,22.19
848,36.44
849,46.6
850,53.3
851,57.25
852,58.93
853,58.48
854,56.07
855,52.19
856,47.68
857,43.63
858,40.9
859,39.87
860,40.22
861,41.14
862,41.64
863,40.92
864,38.68
865,35.09
866,30.68
867,26.02
868,21.44
869,16.99
870,12.48
871,7.68
872,2.5
873,-2.94
874,-8.32
875,-13.33
876,-17.8
877,-21.73
878,-25.27
879,-28.62
880,-31.91
881,-35.26
882,-38.8
883,-42.85
884,-47.81
885,-54
886,-61.28
887,-68.73
888,-74.54
889,-76.43
890,-72.41
891,-61.6
892,-44.77
893,-24.19
894,-2.88
895,16.38
896,31.91
897,43.28
898,50.95
899,55.67
900,57.91
901,57.86
902,55.61
903,51.62
904,46.79
905,42.33
906,39.23
907,37.95
908,38.19
909,39.11
910,39.77
911,39.44
912,37.9
913,35.32
914,32.1
915,28.54
916,24.78
917,20.76
918,16.36
919,11.54
920,6.41
921,1.21
922,-3.8
923,-8.47
924,-12.79
925,-16.88
926,-20.87
927,-24.81
928,-28.63
929,-32.22
930,-35.51
931,-38.68
932,-42.19
933,-46.66
934,-52.58
935,-59.89
936,-67.66
937,-74.1
938,-76.99
939,-74.39
940,-65.41
941,-50.61
942,-31.86
943,-11.78
944,7.16
945,23.24
946,35.7
947,44.53
948,50.02
949,52.44
950,51.97
951,48.96
952,44.14
953,38.68
954,33.94
955,30.99
956,30.23
957,31.23
958,32.97
959,34.3
960,34.37
961,32.94
962,30.24
963,26.81
964,23.07
965,19.23
966,15.23
967,10.94
968,6.27
969,1.3
970,-3.76
971,-8.74
972,-13.45
973,-17.85
974,-21.92
975,-25.67
976,-29.12
977,-32.32
978,-35.47
979,-38.96
980,-43.31
981,-48.93
982,-55.79
983,-63.11
984,-69.29
985,-72.25
986,-70.07
987,-61.75
988,-47.65
989,-29.52
990,-9.89
991,8.72
992,24.5
993,36.71
994,45.38
995,50.9
996,53.59
997,53.61
998,51.16
999,46.81
1000,41.58
1001,36.76
1002,33.48
1003,32.2
1004,32.64
1005,33.85
1006,34.7
1007,34.35
1008,32.5
1009,29.41
1010,25.63
1011,21.67
1012,17.74
1013,13.71
1014,9.3
1015,4.28
1016,-1.33
1017,-7.23
1018,-12.95
1019,-18.13
1020,-22.58
1021,-26.34
1022,-29.64
1023,-32.7
1024,-35.74
1025,-38.94
1026,-42.61
1027,-47.18
1028,-53.06
1029,-60.28
1030,-68.08
1031,-74.83
1032,-78.24
1033,-76.19
1034,-67.49
1035,-52.56
1036,-33.3
1037,-12.55
1038,6.93
1039,23.27
1040,35.79
1041,44.71
1042,50.57
1043,53.76
1044,54.35
1045,52.43
1046,48.43
1047,43.35
1048,38.59
1049,35.43
1050,34.54
1051,35.73
1052,38.02
1053,40.12
1054,40.93
1055,39.97
1056,37.39
1057,33.79
1058,29.85
1059,25.98
1060,22.19
1061,18.2
1062,13.67
1063,8.42
1064,2.6
1065,-3.4
1066,-9.08
1067,-14.09
1068,-18.35
1069,-22.04
1070,-25.48
1071,-28.96
1072,-32.63
1073,-36.59
1074,-41.01
1075,-46.14
1076,-52.24
1077,-59.18
1078,-66.09
1079,-71.28
1080,-72.61
1081,-68.22
1082,-57.4
1083,-40.97
1084,-21.22
1085,-1.09
1086,16.82
1087,31.01
1088,41.21
1089,47.93
1090,51.88
1091,53.42
1092,52.63
1093,49.6
1094,44.88
1095,39.61
1096,35.19
1097,32.73
1098,32.57
1099,34.08
1100,35.98
1101,36.94
1102,36.14
1103,33.51
1104,29.6
1105,25.19
1106,20.87
1107,16.83
1108,12.92
1109,8.8
1110,4.21
1111,-0.92
1112,-6.41
1113,-11.99
1114,-17.34
1115,-22.26
1116,-26.64
1117,-30.52
1118,-34
1119,-37.22
1120,-40.38
1121,-43.71
1122,-47.57
1123,-52.33
1124,-58.29
1125,-65.31
1126,-72.58
1127,-78.5
1128,-81.06
1129,-78.39
1130,-69.63
1131,-55.35
1132,-37.52
1133,-18.85
1134,-1.97
1135,11.46
1136,20.87
1137,26.58
1138,29.27
1139,29.46
1140,27.5
1141,23.74
1142,18.88
1143,14.08
1144,10.74
1145,9.99
1146,12.25
1147,17.01
1148,23.05
1149,28.87
1150,33.31
1151,35.91
1152,36.89
1153,36.9
1154,36.55
1155,36.08
1156,35.21
1157,33.4
1158,30.17
1159,25.44
1160,19.61
1161,13.44
1162,7.66
1163,2.69
1164,-1.54
1165,-5.4
1166,-9.35
1167,-13.67
1168,-18.48
1169,-23.75
1170,-29.55
1171,-36.01
1172,-43.02
1173,-49.94
1174,-55.38
1175,-57.5
1176,-54.59
1177,-45.9
1178,-32.06
1179,-15.05
1180,2.52
1181,18.24
1182,30.67
1183,39.42
1184,44.82
1185,47.43
1186,47.6
1187,45.54
1188,41.54
1189,36.25
1190,30.79
1191,26.36
1192,23.8
1193,23.25
1194,24.07
1195,25.16
1196,25.49
1197,24.49
1198,22.24
1199,19.26
1200,16.13
1201,13.09
1202,9.97
1203,6.27
1204,1.52
1205,-4.35
1206,-10.91
1207,-17.37
1208,-22.92
1209,-27.09
1210,-29.97
1211,-32.16
1212,-34.52
1213,-37.83
1214,-42.56
1215,-48.69
1216,-55.68
1217,-62.43
1218,-67.48
1219,-69.25
1220,-66.43
1221,-58.46
1222,-45.75
1223,-29.67
1224,-12.13
1225,4.88
1226,19.83
1227,31.82
1228,40.53
1229,45.95
1230,48.2
1231,47.55
1232,44.52
1233,39.95
1234,34.96
1235,30.64
1236,27.75
1237,26.49
1238,26.55
1239,27.25
1240,27.86
1241,27.84
1242,26.91
1243,25.05
1244,22.39
1245,19.08
1246,15.25
1247,10.94
1248,6.12
1249,0.8
1250,-4.96
1251,-10.95
1252,-16.81
1253,-22.14
1254,-26.63
1255,-30.26
1256,-33.26
1257,-36.18
1258,-39.72
1259,-44.51
1260,-50.9
1261,-58.57
1262,-66.39
1263,-72.5
1264,-74.71
1265,-71.25
1266,-61.47
1267,-46.21
1268,-27.6
1269,-8.32
1270,9.24
1271,23.69
1272,34.66
1273,42.45
1274,47.46
1275,49.82
1276,49.54
1277,46.76
1278,42.21
1279,37.14
1280,32.97
1281,30.73
1282,30.6
1283,31.87
1284,33.3
1285,33.71
1286,32.5
1287,29.78
1288,26.22
1289,22.56
1290,19.15
1291,15.84
1292,12.13
1293,7.5
1294,1.8
1295,-4.64
1296,-11.08
1297,-16.77
1298,-21.26
1299,-24.56
1300,-27.14
1301,-29.71
1302,-32.9
1303,-37.15
1304,-42.63
1305,-49.15
1306,-56.16
1307,-62.62
1308,-67.06
1309,-67.79
1310,-63.41
1311,-53.32
1312,-38.14
1313,-19.66
1314,-0.34
1315,17.39
1316,31.82
1317,42.2
1318,48.68
1319,51.85
1320,52.4
1321,50.87
1322,47.76
1323,43.68
1324,39.39
1325,35.82
1326,33.66
1327,33.17
1328,34.01
1329,35.31
1330,36.07
1331,35.5
1332,33.4
1333,30.04
1334,26.09
1335,22.11
1336,18.35
1337,14.59
1338,10.37
1339,5.29
1340,-0.72
1341,-7.21
1342,-13.46
1343,-18.72
1344,-22.63
1345,-25.37
1346,-27.66
1347,-30.45
1348,-34.57
1349,-40.44
1350,-47.83
1351,-55.93
1352,-63.39
1353,-68.59
1354,-70.01
1355,-66.58
1356,-57.96
1357,-44.72
1358,-28.23
1359,-10.35
1360,7
1361,22.23
1362,34.22
1363,42.38
1364,46.57
1365,47.05
1366,44.48
1367,39.84
1368,34.38
1369,29.31
1370,25.51
1371,23.32
1372,22.55
1373,22.67
1374,23.01
1375,23.08
1376,22.62
1377,21.55
1378,19.85
1379,17.41
1380,14.1
1381,9.8
1382,4.54
1383,-1.39
1384,-7.5
1385,-13.24
1386,-18.16
1387,-22.12
1388,-25.28
1389,-28.06
1390,-30.96
1391,-34.46
1392,-38.92
1393,-44.47
1394,-50.98
1395,-57.79
1396,-63.68
1397,-66.95
1398,-65.83
1399,-59.13
1400,-46.75
1401,-29.93
1402,-10.9
1403,7.76
1404,23.89
1405,36.24
1406,44.54
1407,49.14
1408,50.68
1409,49.73
1410,46.85
1411,42.62
1412,37.8
1413,33.26
1414,29.8
1415,27.82
1416,27.22
1417,27.4
1418,27.54
1419,26.94
1420,25.25
1421,22.53
1422,19.08
1423,15.17
1424,10.88
1425,6.09
1426,0.65
1427,-5.43
1428,-11.87
1429,-18.18
1430,-23.85
1431,-28.61
1432,-32.52
1433,-36.06
1434,-39.96
1435,-44.96
1436,-51.43
1437,-59.01
1438,-66.41
1439,-71.61
1440,-72.37
1441,-67.1
1442,-55.51
1443,-38.8
1444,-19.33
1445,0.26
1446,17.84
1447,32.28
1448,43.3
1449,51.06
1450,55.68
1451,57.16
1452,55.61
1453,51.61
1454,46.31
1455,41.21
1456,37.62
1457,36.09
1458,36.3
1459,37.21
1460,37.64
1461,36.81
1462,34.53
1463,31.21
1464,27.48
1465,23.76
1466,20.08
1467,16.04
1468,11.2
1469,5.31
1470,-1.44
1471,-8.44
1472,-14.93
1473,-20.36
1474,-24.67
1475,-28.23
1476,-31.76
1477,-35.96
1478,-41.36
1479,-48.11
1480,-55.91
1481,-63.94
1482,-70.84
1483,-74.86
1484,-74.2
1485,-67.65
1486,-55
1487,-37.38
1488,-16.93
1489,3.73
1490,22.29
1491,37.21
1492,47.9
1493,54.51
1494,57.55
1495,57.63
1496,55.34
1497,51.39
1498,46.66
1499,42.15
1500,38.78
1501,37.09
1502,37
1503,37.87
1504,38.75
1505,38.72
1506,37.27
1507,34.39
1508,30.48
1509,26.1
1510,21.67
1511,17.31
1512,12.86
1513,8.02
1514,2.55
1515,-3.54
1516,-9.94
1517,-16.13
1518,-21.57
1519,-25.91
1520,-29.19
1521,-31.86
1522,-34.66
1523,-38.43
1524,-43.81
1525,-50.96
1526,-59.34
1527,-67.61
1528,-73.79
1529,-75.73
1530,-71.75
1531,-61.25
1532,-45.01
1533,-25.01
1534,-3.82
1535,16.1
1536,33.03
1537,46.14
1538,55.23
1539,60.47
1540,62.12
1541,60.55
1542,56.44
1543,50.86
1544,45.18
1545,40.66
1546,38.07
1547,37.44
1548,38.12
1549,39.1
1550,39.44
1551,38.65
1552,36.67
1553,33.82
1554,30.46
1555,26.84
1556,22.96
1557,18.68
1558,13.86
1559,8.5
1560,2.77
1561,-3.01
1562,-8.5
1563,-13.47
1564,-17.86
1565,-21.75
1566,-25.33
1567,-28.81
1568,-32.42
1569,-36.47
1570,-41.38
1571,-47.52
1572,-54.94
1573,-62.93
1574,-69.91
1575,-73.65
1576,-72.01
1577,-63.75
1578,-49.21
1579,-30.22
1580,-9.54
1581,10.08
1582,26.71
1583,39.46
1584,48.32
1585,53.58
1586,55.52
1587,54.3
1588,50.28
1589,44.31
1590,37.79
1591,32.29
1592,28.98
1593,28.19
1594,29.24
1595,30.8
1596,31.51
1597,30.6
1598,28.09
1599,24.65
1600,21.07
1601,17.79
1602,14.65
1603,11.05
1604,6.36
1605,0.37
1606,-6.53
1607,-13.5
1608,-19.57
1609,-24.11
1610,-27.1
1611,-29.15
1612,-31.18
1613,-34.12
1614,-38.58
1615,-44.62
1616,-51.76
1617,-59
1618,-64.93
1619,-67.92
1620,-66.47
1621,-59.59
1622,-47.22
1623,-30.38
1624,-11.07
1625,8.29
1626,25.45
1627,38.87
1628,47.96
1629,52.88
1630,54.23
1631,52.76
1632,49.16
1633,44.17
1634,38.63
1635,33.45
1636,29.46
1637,27.13
1638,26.45
1639,26.89
1640,27.6
1641,27.75
1642,26.79
1643,24.6
1644,21.41
1645,17.61
1646,13.54
1647,9.32
1648,4.84
1649,-0.13
1650,-5.75
1651,-11.96
1652,-18.4
1653,-24.5
1654,-29.69
1655,-33.65
1656,-36.47
1657,-38.69
1658,-41.19
1659,-44.88
1660,-50.38
1661,-57.63
1662,-65.74
1663,-73
1664,-77.24
1665,-76.41
1666,-69.25
1667,-55.8
1668,-37.47
1669,-16.68
1670,3.93
1671,22.16
1672,36.75
1673,47.35
1674,54.2
1675,57.64
1676,57.96
1677,55.5
1678,50.89
1679,45.2
1680,39.81
1681,35.97
1682,34.32
1683,34.65
1684,36
1685,37.16
1686,37.13
1687,35.49
1688,32.45
1689,28.51
1690,24.23
1691,19.91
1692,15.58
1693,11.06
1694,6.15
1695,0.76
1696,-5
1697,-10.89
1698,-16.55
1699,-21.66
1700,-25.98
1701,-29.47
1702,-32.27
1703,-34.76
1704,-37.42
1705,-40.82
1706,-45.5
1707,-51.69
1708,-59.08
1709,-66.59
1710,-72.34
1711,-74.08
1712,-69.91
1713,-59.03
1714,-42.22
1715,-21.69
1716,-0.45
1717,18.74
1718,34.1
1719,45.08
1720,52
1721,55.54
1722,56.2
1723,54.3
1724,50.22
1725,44.67
1726,38.83
1727,34.02
1728,31.25
1729,30.8
1730,32.1
1731,33.98
1732,35.17
1733,34.79
1734,32.65
1735,29.19
1736,25.14
1737,21.16
1738,17.51
1739,13.98
1740,10.09
1741,5.45
1742,-0.06
1743,-6.09
1744,-12.05
1745,-17.35
1746,-21.65
1747,-25
1748,-27.74
1749,-30.36
1750,-33.28
1751,-36.78
1752,-41.05
1753,-46.22
1754,-52.37
1755,-59.27
1756,-66.09
1757,-71.32
1758,-72.94
1759,-69.12
1760,-58.95
1761,-43.05
1762,-23.51
1763,-3.23
1764,15.03
1765,29.5
1766,39.65
1767,45.92
1768,49.01
1769,49.46
1770,47.51
1771,43.4
1772,37.78
1773,31.8
1774,26.87
1775,24.07
1776,23.69
1777,25.08
1778,26.94
1779,27.97
1780,27.4
1781,25.25
1782,22.12
1783,18.76
1784,15.64
1785,12.65
1786,9.32
1787,5.11
1788,-0.18
1789,-6.22
1790,-12.29
1791,-17.6
1792,-21.67
1793,-24.53
1794,-26.69
1795,-28.93
1796,-32
1797,-36.42
1798,-42.33
1799,-49.39
1800,-56.7
1801,-62.82
1802,-65.99
1803,-64.59
1804,-57.64
1805,-45.22
1806,-28.59
1807,-9.85
1808,8.66
1809,24.94
1810,37.7
1811,46.38
1812,50.94
1813,51.74
1814,49.34
1815,44.62
1816,38.69
1817,32.77
1818,27.88
1819,24.64
1820,23.06
1821,22.69
1822,22.86
1823,22.95
1824,22.59
1825,21.63
1826,20.04
1827,17.76
1828,14.66
1829,10.6
1830,5.54
1831,-0.38
1832,-6.8
1833,-13.25
1834,-19.27
1835,-24.52
1836,-28.91
1837,-32.56
1838,-35.76
1839,-38.91
1840,-42.47
1841,-46.92
1842,-52.56
1843,-59.28
1844,-66.29
1845,-72
1846,-74.29
1847,-71.16
1848,-61.53
1849,-45.83
1850,-26.03
1851,-5.11
1852,14.02
1853,29.37
1854,40.33
1855,47.34
1856,51.28
1857,52.82
1858,52.16
1859,49.31
1860,44.55
1861,38.73
1862,33.2
1863,29.36
1864,28.02
1865,29.02
1866,31.26
1867,33.22
1868,33.6
1869,31.85
1870,28.28
1871,23.77
1872,19.27
1873,15.26
1874,11.58
1875,7.58
1876,2.57
1877,-3.75
1878,-11.08
1879,-18.55
1880,-25.18
1881,-30.26
1882,-33.7
1883,-36
1884,-38
1885,-40.5
1886,-44.01
1887,-48.75
1888,-54.67
1889,-61.57
1890,-68.94
1891,-75.76
1892,-80.35
1893,-80.66
1894,-74.9
1895,-62.3
1896,-43.71
1897,-21.52
1898,1.05
1899,21.03
1900,36.49
1901,46.98
1902,53.1
1903,55.86
1904,56.16
1905,54.47
1906,51.13
1907,46.64
1908,41.82
1909,37.73
1910,35.28
1911,34.86
1912,36.13
1913,38.13
1914,39.63
1915,39.63
1916,37.67
1917,33.91
1918,29.03
1919,23.87
1920,19.09
1921,14.95
1922,11.22
1923,7.33
1924,2.75
1925,-2.76
1926,-8.94
1927,-15.09
1928,-20.44
1929,-24.5
1930,-27.31
1931,-29.4
1932,-31.55
1933,-34.43
1934,-38.41
1935,-43.59
1936,-49.85
1937,-56.97
1938,-64.42
1939,-71.12
1940,-75.35
1941,-75.05
1942,-68.55
1943,-55.33
1944,-36.49
1945,-14.55
1946,7.33
1947,26.33
1948,40.78
1949,50.3
1950,55.47
1951,57.16
1952,56.14
1953,52.92
1954,48.03
1955,42.22
1956,36.56
1957,32.18
1958,29.93
1959,29.95
1960,31.59
1961,33.7
1962,35.02
1963,34.68
1964,32.47
1965,28.8
1966,24.48
1967,20.24
1968,16.43
1969,12.91
1970,9.16
1971,4.64
1972,-0.89
1973,-7.19
1974,-13.57
1975,-19.2
1976,-23.52
1977,-26.45
1978,-28.48
1979,-30.46
1980,-33.17
1981,-37.17
1982,-42.6
1983,-49.23
1984,-56.49
1985,-63.41
1986,-68.63
1987,-70.53
1988,-67.57
1989,-58.87
1990,-44.6
1991,-26.17
1992,-5.9
1993,13.64
1994,30.29
1995,42.77
1996,50.68
1997,54.33
1998,54.34
1999,51.52
2000,46.75
2001,41.04
2002,35.47
2003,31.03
2004,28.39
2005,27.7
2006,28.55
2007,30.06
2008,31.21
2009,31.19
2010,29.64
2011,26.69
2012,22.84
2013,18.65
2014,14.48
2015,10.35
2016,5.99
2017,1.06
2018,-4.62
2019,-10.92
2020,-17.35
2021,-23.32
2022,-28.28
2023,-32.03
2024,-34.79
2025,-37.18
2026,-40.07
2027,-44.31
2028,-50.42
2029,-58.22
2030,-66.63
2031,-73.73
2032,-77.2
2033,-74.97
2034,-66.06
2035,-50.91
2036,-31.4
2037,-10.23
2038,9.94
2039,27.16
2040,40.49
2041,49.81
2042,55.32
2043,57.27
2044,55.86
2045,51.49
2046,45.07
2047,38.03
2048,32.01
2049,28.32
2050,27.42
2051,28.78
2052,31.13
2053,33.02
2054,33.39
2055,31.91
2056,28.94
2057,25.14
2058,21.13
2059,17.18
2060,13.19
2061,8.89
2062,4.04
2063,-1.42
2064,-7.29
2065,-13.22
2066,-18.84
2067,-23.86
2068,-28.15
2069,-31.79
2070,-34.97
2071,-37.99
2072,-41.25
2073,-45.18
2074,-50.29
2075,-56.91
2076,-64.92
2077,-73.39
2078,-80.42
2079,-83.5
2080,-80.26
2081,-69.47
2082,-51.64
2083,-29.08
2084,-5.14
2085,16.93
2086,34.91
2087,48.02
2088,56.58
2089,61.36
2090,63
2091,61.82
2092,58.13
2093,52.59
2094,46.39
2095,41
2096,37.65
2097,36.86
2098,38.21
2099,40.52
2100,42.43
2101,42.89
2102,41.5
2103,38.53
2104,34.57
2105,30.18
2106,25.67
2107,21.05
2108,16.21
2109,11.1
2110,5.83
2111,0.63
2112,-4.29
2113,-8.93
2114,-13.44
2115,-18.02
2116,-22.76
2117,-27.47
2118,-31.84
2119,-35.53
2120,-38.47
2121,-41.04
2122,-44.01
2123,-48.32
2124,-54.59
2125,-62.63
2126,-71.17
2127,-77.92
2128,-80.17
2129,-75.73
2130,-63.73
2131,-45.09
2132,-22.27
2133,1.47
2134,23.1
2135,40.57
2136,53.09
2137,60.88
2138,64.61
2139,64.99
2140,62.65
2141,58.23
2142,52.64
2143,47.02
2144,42.52
2145,39.95
2146,39.41
2147,40.31
2148,41.64
2149,42.41
2150,42.04
2151,40.48
2152,37.98
2153,34.88
2154,31.32
2155,27.26
2156,22.6
2157,17.4
2158,11.96
2159,6.72
2160,2
2161,-2.15
2162,-5.96
2163,-9.79
2164,-13.85
2165,-18.08
2166,-22.18
2167,-25.82
2168,-28.86
2169,-31.49
2170,-34.24
2171,-37.75
2172,-42.59
2173,-49.03
2174,-56.81
2175,-64.98
2176,-71.92
2177,-75.61
2178,-74.08
2179,-66.12
2180,-51.8
2181,-32.59
2182,-10.99
2183,10.2
2184,28.64
2185,42.94
2186,52.65
2187,57.96
2188,59.29
2189,57.2
2190,52.35
2191,45.77
2192,38.76
2193,32.73
2194,28.8
2195,27.42
2196,28.27
2197,30.4
2198,32.59
2199,33.74
2200,33.24
2201,31
2202,27.39
2203,22.97
2204,18.3
2205,13.72
2206,9.3
2207,4.92
2208,0.34
2209,-4.6
2210,-9.89
2211,-15.33
2212,-20.54
2213,-25.14
2214,-28.86
2215,-31.68
2216,-33.89
2217,-36.06
2218,-38.92
2219,-43.16
2220,-49.14
2221,-56.61
2222,-64.5
2223,-71
2224,-73.89
2225,-71.25
2226,-62.13
2227,-47
2228,-27.68
2229,-6.86
2230,12.82
2231,29.4
2232,41.96
2233,50.42
2234,55.1
2235,56.35
2236,54.53
2237,50.14
2238,44.07
2239,37.62
2240,32.19
2241,28.82
2242,27.85
2243,28.81
2244,30.67
2245,32.28
2246,32.79
2247,31.81
2248,29.44
2249,26.04
2250,22.02
2251,17.66
2252,13.08
2253,8.27
2254,3.14
2255,-2.33
2256,-8.06
2257,-13.86
2258,-19.43
2259,-24.51
2260,-28.88
2261,-32.49
2262,-35.42
2263,-37.89
2264,-40.28
2265,-43.09
2266,-46.91
2267,-52.31
2268,-59.44
2269,-67.72
2270,-75.55
2271,-80.57
2272,-80.33
2273,-73.15
2274,-58.91
2275,-39.22
2276,-16.92
2277,4.89
2278,23.8
2279,38.63
2280,49.3
2281,56.28
2282,60.06
2283,60.85
2284,58.8
2285,54.36
2286,48.48
2287,42.55
2288,37.98
2289,35.64
2290,35.6
2291,37.12
2292,39.02
2293,40.19
2294,39.95
2295,38.19
2296,35.2
2297,31.37
2298,27.02
2299,22.29
2300,17.18
2301,11.69
2302,5.91
2303,0.02
2304,-5.74
2305,-11.17
2306,-16.14
2307,-20.62
2308,-24.64
2309,-28.25
2310,-31.51
2311,-34.53
2312,-37.53
2313,-40.83
2314,-44.92
2315,-50.29
2316,-57.12
2317,-64.93
2318,-72.38
2319,-77.38
2320,-77.65
2321,-71.52
2322,-58.65
2323,-40.27
2324,-18.84
2325,2.72
2326,21.96
2327,37.42
2328,48.68
2329,55.97
2330,59.71
2331,60.24
2332,57.91
2333,53.36
2334,47.62
2335,42.04
2336,37.91
2337,35.95
2338,36.12
2339,37.64
2340,39.39
2341,40.37
2342,40.04
2343,38.4
2344,35.78
2345,32.6
2346,29.09
2347,25.29
2348,21.1
2349,16.49
2350,11.52
2351,6.39
2352,1.3
2353,-3.65
2354,-8.47
2355,-13.18
2356,-17.75
2357,-22
2358,-25.73
2359,-28.81
2360,-31.36
2361,-33.84
2362,-36.98
2363,-41.55
2364,-48.05
2365,-56.29
2366,-65.2
2367,-72.87
2368,-76.93
2369,-75.29
2370,-66.89
2371,-52.15
2372,-32.94
2373,-11.99
2374,7.96
2375,24.85
2376,37.66
2377,46.26
2378,50.97
2379,52.23
2380,50.53
2381,46.47
2382,40.99
2383,35.33
2384,30.75
2385,28.18
2386,27.87
2387,29.27
2388,31.31
2389,32.79
2390,32.9
2391,31.37
2392,28.55
2393,25
2394,21.23
2395,17.45
2396,13.5
2397,9.09
2398,4
2399,-1.71
2400,-7.73
2401,-13.55
2402,-18.76
2403,-23.13
2404,-26.71
2405,-29.73
2406,-32.51
2407,-35.35
2408,-38.55
2409,-42.45
2410,-47.45
2411,-53.73
2412,-61.02
2413,-68.26
2414,-73.61
2415,-74.87
2416,-70.27
2417,-59.2
2418,-42.64
2419,-22.88
2420,-2.74
2421,15.3
2422,29.87
2423,40.64
2424,47.94
2425,52.2
2426,53.6
2427,52.17
2428,48.14
2429,42.32
2430,36.11
2431,31.08
2432,28.41
2433,28.38
2434,30.27
2435,32.69
2436,34.25
2437,34.04
2438,31.94
2439,28.48
2440,24.43
2441,20.39
2442,16.55
2443,12.73
2444,8.54
2445,3.7
2446,-1.79
2447,-7.66
2448,-13.47
2449,-18.81
2450,-23.46
2451,-27.45
2452,-31.01
2453,-34.43
2454,-37.93
2455,-41.69
2456,-45.89
2457,-50.79
2458,-56.68
2459,-63.55
2460,-70.7
2461,-76.52
2462,-78.76
2463,-75.2
2464,-64.65
2465,-47.61
2466,-26.31
2467,-4
2468,16.21
2469,32.27
2470,43.63
2471,50.86
2472,54.95
2473,56.68
2474,56.42
2475,54.33
2476,50.75
2477,46.46
2478,42.5
2479,39.81
2480,38.81
2481,39.21
2482,40.2
2483,40.82
2484,40.38
2485,38.68
2486,35.96
2487,32.65
2488,29.02
2489,25.13
2490,20.82
2491,15.91
2492,10.45
2493,4.77
2494,-0.7
2495,-5.58
2496,-9.79
2497,-13.53
2498,-17.15
2499,-20.94
2500,-24.93
2501,-28.92
2502,-32.55
2503,-35.59
2504,-38.05
2505,-40.29
2506,-42.94
2507,-46.8
2508,-52.46
2509,-59.97
2510,-68.51
2511,-76.26
2512,-80.79
2513,-79.73
2514,-71.67
2515,-56.73
2516,-36.65
2517,-14.23
2518,7.58
2519,26.5
2520,41.33
2521,51.83
2522,58.29
2523,61.14
2524,60.81
2525,57.9
2526,53.29
2527,48.24
2528,44.06
2529,41.67
2530,41.32
2531,42.48
2532,44.15
2533,45.35
2534,45.49
2535,44.55
2536,42.9
2537,40.97
2538,38.93
2539,36.61
2540,33.59
2541,29.51
2542,24.34
2543,18.4
2544,12.33
2545,6.78
2546,2.15
2547,-1.49
2548,-4.46
2549,-7.25
2550,-10.32
2551,-13.92
2552,-18.04
2553,-22.41
2554,-26.69
2555,-30.61
2556,-34.08
2557,-37.2
2558,-40.21
2559,-43.46
2560,-47.39
2561,-52.49
2562,-59.09
2563,-67.12
2564,-75.69
2565,-83
2566,-86.67
2567,-84.39
2568,-74.91
2569,-58.61
2570,-37.56
2571,-14.88
2572,6.3
2573,23.75
2574,36.56
2575,44.95
2576,49.65
2577,51.36
2578,50.5
2579,47.41
2580,42.69
2581,37.34
2582,32.64
2583,29.7
2584,29
2585,30.21
2586,32.31
2587,34.15
2588,34.92
2589,34.41
2590,32.96
2591,31.09
2592,29.11
2593,26.9
2594,24.02
2595,20
2596,14.75
2597,8.69
2598,2.61
2599,-2.62
2600,-6.5
2601,-9.12
2602,-11.11
2603,-13.32
2604,-16.37
2605,-20.4
2606,-25.02
2607,-29.54
2608,-33.32
2609,-36.12
2610,-38.2
2611,-40.21
2612,-42.95
2613,-47.14
2614,-53.13
2615,-60.8
2616,-69.34
2617,-77.28
2618,-82.65
2619,-83.39
2620,-77.92
2621,-65.73
2622,-47.69
2623,-25.92
2624,-3.23
2625,17.59
2626,34.5
2627,46.52
2628,53.64
2629,56.51
2630,56.06
2631,53.25
2632,48.99
2633,44.24
2634,39.89
2635,36.74
2636,35.28
2637,35.55
2638,37.07
2639,39.04
2640,40.58
2641,41.06
2642,40.25
2643,38.33
2644,35.74
2645,32.92
2646,30.09
2647,27.15
2648,23.78
2649,19.62
2650,14.54
2651,8.76
2652,2.84
2653,-2.54
2654,-6.86
2655,-9.99
2656,-12.23
2657,-14.25
2658,-16.76
2659,-20.25
2660,-24.74
2661,-29.78
2662,-34.64
2663,-38.64
2664,-41.51
2665,-43.52
2666,-45.42
2667,-48.19
2668,-52.69
2669,-59.25
2670,-67.48
2671,-76.11
2672,-83.15
2673,-86.32
2674,-83.61
2675,-73.99
2676,-57.86
2677,-36.98
2678,-14.06
2679,8.02
2680,26.99
2681,41.6
2682,51.57
2683,57.23
2684,59.2
2685,58.14
2686,54.81
2687,50.12
2688,45.14
2689,40.97
2690,38.37
2691,37.63
2692,38.48
2693,40.26
2694,42.15
2695,43.5
2696,43.89
2697,43.16
2698,41.42
2699,38.85
2700,35.69
2701,32.18
2702,28.43
2703,24.47
2704,20.22
2705,15.58
2706,10.56
2707,5.4
2708,0.51
2709,-3.65
2710,-6.8
2711,-9.02
2712,-10.77
2713,-12.69
2714,-15.36
2715,-19
2716,-23.36
2717,-27.83
2718,-31.75
2719,-34.7
2720,-36.74
2721,-38.4
2722,-40.49
2723,-43.9
2724,-49.28
2725,-56.73
2726,-65.64
2727,-74.52
2728,-81.23
2729,-83.44
2730,-79.3
2731,-68.15
2732,-50.77
2733,-29.29
2734,-6.52
2735,14.85
2736,32.85
2737,46.5
2738,55.61
2739,60.46
2740,61.53
2741,59.38
2742,54.8
2743,48.86
2744,42.87
2745,38.07
2746,35.29
2747,34.69
2748,35.74
2749,37.52
2750,39.1
2751,39.86
2752,39.66
2753,38.68
2754,37.23
2755,35.45
2756,33.29
2757,30.55
2758,27.05
2759,22.76
2760,17.87
2761,12.7
2762,7.64
2763,2.98
2764,-1.08
2765,-4.53
2766,-7.51
2767,-10.28
2768,-13.17
2769,-16.45
2770,-20.25
2771,-24.48
2772,-28.84
2773,-32.92
2774,-36.38
2775,-39.1
2776,-41.3
2777,-43.51
2778,-46.48
2779,-50.98
2780,-57.48
2781,-65.76
2782,-74.69
2783,-82.18
2784,-85.71
2785,-83.05
2786,-73.07
2787,-56.34
2788,-34.99
2789,-12.04
2790,9.5
2791,27.47
2792,40.89
2793,49.71
2794,54.4
2795,55.45
2796,53.38
2797,48.88
2798,42.99
2799,37.12
2800,32.67
2801,30.57
2802,30.92
2803,33.01
2804,35.65
2805,37.73
2806,38.66
2807,38.45
2808,37.46
2809,36.02
2810,34.12
2811,31.44
2812,27.53
2813,22.26
2814,15.96
2815,9.34
2816,3.24
2817,-1.82
2818,-5.78
2819,-9.08
2820,-12.39
2821,-16.19
2822,-20.62
2823,-25.36
2824,-29.91
2825,-33.84
2826,-37
2827,-39.58
2828,-41.99
2829,-44.66
2830,-47.96
2831,-52.22
2832,-57.65
2833,-64.22
2834,-71.36
2835,-77.78
2836,-81.52
2837,-80.39
2838,-72.78
2839,-58.31
2840,-38.26
2841,-15.24
2842,7.6
2843,27.47
2844,42.7
2845,52.88
2846,58.56
2847,60.68
2848,60.14
2849,57.6
2850,53.59
2851,48.73
2852,43.82
2853,39.76
2854,37.31
2855,36.77
2856,37.87
2857,39.83
2858,41.67
2859,42.57
2860,42.14
2861,40.44
2862,37.82
2863,34.65
2864,31.05
2865,26.92
2866,22.01
2867,16.25
2868,9.86
2869,3.43
2870,-2.4
2871,-7.21
2872,-11.05
2873,-14.41
2874,-17.99
2875,-22.27
2876,-27.28
2877,-32.49
2878,-37.17
2879,-40.72
2880,-43.07
2881,-44.79
2882,-46.91
2883,-50.54
2884,-56.45
2885,-64.57
2886,-73.76
2887,-81.92
2888,-86.42
2889,-84.87
2890,-75.95
2891,-59.91
2892,-38.6
2893,-14.9
2894,8.14
2895,28.14
2896,43.73
2897,54.55
2898,60.91
2899,63.33
2900,62.45
2901,59.05
2902,54.07
2903,48.66
2904,43.92
2905,40.64
2906,39.1
2907,39.08
2908,39.99
2909,41.18
2910,42.1
2911,42.43
2912,41.97
2913,40.61
2914,38.25
2915,34.86
2916,30.5
2917,25.39
2918,19.91
2919,14.42
2920,9.17
2921,4.16
2922,-0.79
2923,-5.88
2924,-11.15
2925,-16.43
2926,-21.33
2927,-25.47
2928,-28.68
2929,-31.12
2930,-33.23
2931,-35.64
2932,-38.94
2933,-43.62
2934,-49.88
2935,-57.44
2936,-65.36
2937,-71.99
2938,-75.21
2939,-73.02
2940,-64.22
2941,-49.02
2942,-29.05
2943,-7
2944,14.24
2945,32.3
2946,45.82
2947,54.42
2948,58.44
2949,58.58
2950,55.65
2951,50.56
2952,44.3
2953,37.95
2954,32.53
2955,28.82
2956,27.16
2957,27.41
2958,28.94
2959,30.87
2960,32.28
2961,32.52
2962,31.31
2963,28.76
2964,25.29
2965,21.39
2966,17.47
2967,13.7
2968,9.99
2969,6.01
2970,1.39
2971,-4.11
2972,-10.35
2973,-16.88
2974,-22.97
2975,-28.01
2976,-31.73
2977,-34.33
2978,-36.47
2979,-38.99
2980,-42.68
2981,-47.97
2982,-54.8
2983,-62.48
2984,-69.71
2985,-74.68
2986,-75.48
2987,-70.63
2988,-59.64
2989,-43.27
2990,-23.45
2991,-2.7
2992,16.56
2993,32.52
2994,44.25
2995,51.57
2996,54.71
2997,54.17
2998,50.64
2999,45.01
3000,38.49
3001,32.38
3002,27.82
3003,25.43
3004,25.14
3005,26.27
3006,27.86
3007,29.02
3008,29.24
3009,28.42
3010,26.77
3011,24.52
3012,21.74
3013,18.32
3014,14.03
3015,8.72
3016,2.45
3017,-4.45
3018,-11.44
3019,-17.96
3020,-23.55
3021,-28
3022,-31.41
3023,-34.14
3024,-36.81
3025,-40.16
3026,-44.85
3027,-51.21
3028,-58.96
3029,-66.95
3030,-73.21
3031,-75.42
3032,-71.59
3033,-60.87
3034,-44.05
3035,-23.31
3036,-1.64
3037,18.19
3038,34.37
3039,46.29
3040,54.26
3041,58.85
3042,60.5
3043,59.37
3044,55.68
3045,50.04
3046,43.63
3047,37.91
3048,34.14
3049,32.85
3050,33.57
3051,35.13
3052,36.17
3053,35.72
3054,33.6
3055,30.32
3056,26.66
3057,23.21
3058,19.98
3059,16.42
3060,11.8
3061,5.62
3062,-2.03
3063,-10.39
3064,-18.34
3065,-24.86
3066,-29.49
3067,-32.53
3068,-34.9
3069,-37.67
3070,-41.73
3071,-47.47
3072,-54.75
3073,-62.98
3074,-71.15
3075,-77.85
3076,-81.33
3077,-79.81
3078,-72.03
3079,-57.78
3080,-38.26
3081,-15.85
3082,6.46
3083,26.01
3084,41.13
3085,51.41
3086,57.35
3087,59.9
3088,59.86
3089,57.79
3090,54.07
3091,49.22
3092,44.05
3093,39.6
3094,36.83
3095,36.22
3096,37.46
3097,39.51
3098,41.02
3099,40.84
3100,38.5
3101,34.35
3102,29.31
3103,24.35
3104,19.99
3105,16.09
3106,12.01
3107,6.98
3108,0.57
3109,-6.96
3110,-14.8
3111,-21.87
3112,-27.34
3113,-31.02
3114,-33.43
3115,-35.56
3116,-38.51
3117,-43.04
3118,-49.39
3119,-57.23
3120,-65.63
3121,-73.17
3122,-78.05
3123,-78.42
3124,-72.85
3125,-60.87
3126,-43.27
3127,-22.05
3128,0.08
3129,20.49
3130,37.22
3131,49.35
3132,56.92
3133,60.52
3134,60.95
3135,58.95
3136,55.22
3137,50.48
3138,45.54
3139,41.26
3140,38.3
3141,37.01
3142,37.26
3143,38.45
3144,39.77
3145,40.36
3146,39.6
3147,37.24
3148,33.41
3149,28.56
3150,23.27
3151,18.07
3152,13.27
3153,8.83
3154,4.46
3155,-0.26
3156,-5.63
3157,-11.59
3158,-17.74
3159,-23.44
3160,-28.16
3161,-31.71
3162,-34.35
3163,-36.72
3164,-39.59
3165,-43.61
3166,-49.13
3167,-56.17
3168,-64.22
3169,-72.24
3170,-78.58
3171,-81.28
3172,-78.51
3173,-69.23
3174,-53.71
3175,-33.57
3176,-11.48
3177,9.75
3178,27.83
3179,41.47
3180,50.42
3181,55.06
3182,56.05
3183,54.07
3184,49.91
3185,44.5
3186,38.94
3187,34.32
3188,31.43
3189,30.52
3190,31.24
3191,32.75
3192,34.07
3193,34.37
3194,33.2
3195,30.58
3196,26.89
3197,22.64
3198,18.27
3199,13.99
3200,9.74
3201,5.23
3202,0.18
3203,-5.5
3204,-11.62
3205,-17.67
3206,-23.07
3207,-27.34
3208,-30.38
3209,-32.54
3210,-34.55
3211,-37.24
3212,-41.34
3213,-47.25
3214,-54.79
3215,-63.15
3216,-70.83
3217,-75.92
3218,-76.47
3219,-71.12
3220,-59.6
3221,-42.88
3222,-23.03
3223,-2.58
3224,16.17
3225,31.65
3226,43.17
3227,50.72
3228,54.66
3229,55.38
3230,53.39
3231,49.36
3232,44.24
3233,39.21
3234,35.36
3235,33.34
3236,33.17
3237,34.2
3238,35.43
3239,35.89
3240,35.06
3241,32.89
3242,29.77
3243,26.15
3244,22.28
3245,18.14
3246,13.45
3247,7.96
3248,1.67
3249,-5.08
3250,-11.76
3251,-17.81
3252,-22.92
3253,-27.13
3254,-30.8
3255,-34.43
3256,-38.53
3257,-43.51
3258,-49.67
3259,-57.05
3260,-65.22
3261,-73.1
3262,-78.86
3263,-80.3
3264,-75.53
3265,-63.78
3266,-45.92
3267,-24.33
3268,-2.16
3269,17.75
3270,33.64
3271,45.13
3272,52.79
3273,57.44
3274,59.62
3275,59.42
3276,56.88
3277,52.43
3278,47.05
3279,42.12
3280,38.83
3281,37.69
3282,38.3
3283,39.54
3284,40.1
3285,39.08
3286,36.27
3287,32.16
3288,27.59
3289,23.25
3290,19.35
3291,15.51
3292,11.05
3293,5.33
3294,-1.75
3295,-9.7
3296,-17.54
3297,-24.28
3298,-29.31
3299,-32.71
3300,-35.2
3301,-37.76
3302,-41.3
3303,-46.34
3304,-52.97
3305,-60.86
3306,-69.25
3307,-76.92
3308,-82.16
3309,-83.02
3310,-77.86
3311,-65.95
3312,-47.98
3313,-26.07
3314,-3.21
3315,17.65
3316,34.39
3317,46.22
3318,53.51
3319,57.24
3320,58.42
3321,57.72
3322,55.53
3323,52.17
3324,48.12
3325,44.14
3326,41.09
3327,39.6
3328,39.76
3329,41.06
3330,42.49
3331,42.96
3332,41.7
3333,38.55
3334,33.98
3335,28.76
3336,23.65
3337,19
3338,14.61
3339,9.94
3340,4.46
3341,-2
3342,-9.07
3343,-15.97
3344,-21.9
3345,-26.43
3346,-29.72
3347,-32.42
3348,-35.41
3349,-39.39
3350,-44.66
3351,-51.18
3352,-58.7
3353,-66.82
3354,-74.86
3355,-81.69
3356,-85.6
3357,-84.64
3358,-77.29
3359,-63.14
3360,-43.38
3361,-20.57
3362,2.11
3363,21.84
3364,36.95
3365,47.08
3366,52.84
3367,55.28
3368,55.3
3369,53.48
3370,50.21
3371,45.92
3372,41.27
3373,37.08
3374,34.2
3375,33.11
3376,33.77
3377,35.53
3378,37.34
3379,38.1
3380,37.08
3381,34.15
3382,29.79
3383,24.87
3384,20.19
3385,16.16
3386,12.65
3387,9.05
3388,4.69
3389,-0.79
3390,-7.17
3391,-13.74
3392,-19.66
3393,-24.31
3394,-27.65
3395,-30.16
3396,-32.65
3397,-35.84
3398,-40.2
3399,-45.84
3400,-52.63
3401,-60.26
3402,-68.1
3403,-75.05
3404,-79.45
3405,-79.37
3406,-73.24
3407,-60.58
3408,-42.39
3409,-21.05
3410,0.4
3411,19.23
3412,33.73
3413,43.47
3414,48.98
3415,51.14
3416,50.73
3417,48.27
3418,44.22
3419,39.22
3420,34.25
3421,30.42
3422,28.55
3423,28.9
3424,30.92
3425,33.5
3426,35.38
3427,35.6
3428,33.8
3429,30.28
3430,25.73
3431,20.9
3432,16.32
3433,12.1
3434,8
3435,3.54
3436,-1.68
3437,-7.75
3438,-14.4
3439,-21
3440,-26.84
3441,-31.39
3442,-34.62
3443,-36.99
3444,-39.35
3445,-42.59
3446,-47.35
3447,-53.79
3448,-61.53
3449,-69.67
3450,-76.83
3451,-81.31
3452,-81.35
3453,-75.58
3454,-63.48
3455,-45.76
3456,-24.33
3457,-1.94
3458,18.65
3459,35.35
3460,47.18
3461,54.25
3462,57.4
3463,57.65
3464,55.95
3465,53
3466,49.36
3467,45.59
3468,42.25
3469,39.85
3470,38.67
3471,38.65
3472,39.38
3473,40.25
3474,40.58
3475,39.81
3476,37.67
3477,34.14
3478,29.46
3479,24.02
3480,18.28
3481,12.64
3482,7.36
3483,2.44
3484,-2.28
3485,-7.09
3486,-12.21
3487,-17.63
3488,-23.1
3489,-28.22
3490,-32.67
3491,-36.38
3492,-39.55
3493,-42.62
3494,-46.08
3495,-50.31
3496,-55.6
3497,-62.15
3498,-69.88
3499,-78.25
3500,-85.92
3501,-90.77
3502,-90.35
3503,-82.74
3504,-67.45
3505,-45.83
3506,-20.85
3507,3.89
3508,25.31
3509,41.68
3510,52.82
3511,59.56
3512,62.98
3513,63.9
3514,62.71
3515,59.72
3516,55.45
3517,50.84
3518,46.97
3519,44.71
3520,44.34
3521,45.42
3522,47.04
3523,48.18
3524,48.13
3525,46.68
3526,44.08
3527,40.77
3528,37.11
3529,33.2
3530,28.87
3531,23.86
3532,18.04
3533,11.63
3534,5.12
3535,-0.81
3536,-5.69
3537,-9.47
3538,-12.57
3539,-15.72
3540,-19.58
3541,-24.37
3542,-29.78
3543,-35.05
3544,-39.44
3545,-42.54
3546,-44.57
3547,-46.26
3548,-48.63
3549,-52.64
3550,-58.85
3551,-67.16
3552,-76.6
3553,-85.28
3554,-90.74
3555,-90.48
3556,-82.83
3557,-67.62
3558,-46.39
3559,-22
3560,2.27
3561,23.68
3562,40.64
3563,52.74
3564,60.34
3565,64.08
3566,64.56
3567,62.35
3568,58.22
3569,53.19
3570,48.41
3571,44.86
3572,43.02
3573,42.75
3574,43.42
3575,44.24
3576,44.59
3577,44.21
3578,43.13
3579,41.48
3580,39.28
3581,36.35
3582,32.48
3583,27.58
3584,21.87
3585,15.86
3586,10.18
3587,5.25
3588,1.16
3589,-2.42
3590,-6
3591,-10.02
3592,-14.66
3593,-19.69
3594,-24.71
3595,-29.22
3596,-32.98
3597,-36.02
3598,-38.65
3599,-41.37
3600,-44.75
3601,-49.32
3602,-55.41
3603,-62.88
3604,-70.9
3605,-77.77
3606,-81.24
3607,-79.08
3608,-69.93
3609,-53.96
3610,-32.98
3611,-10
3612,11.75
3613,29.75
3614,42.76
3615,50.78
3616,54.58
3617,55.11
3618,53.16
3619,49.31
3620,44.11
3621,38.3
3622,32.82
3623,28.58
3624,26.27
3625,26.03
3626,27.42
3627,29.55
3628,31.37
3629,32.02
3630,31.05
3631,28.5
3632,24.79
3633,20.46
3634,15.97
3635,11.49
3636,6.89
3637,1.94
3638,-3.58
3639,-9.61
3640,-15.84
3641,-21.76
3642,-26.9
3643,-30.99
3644,-34.05
3645,-36.43
3646,-38.57
3647,-40.96
3648,-44
3649,-47.99
3650,-53.21
3651,-59.72
3652,-67.08
3653,-74.2
3654,-79.22
3655,-79.88
3656,-74.33
3657,-61.84
3658,-43.29
3659,-21.09
3660,1.65
3661,22.02
3662,38.16
3663,49.46
3664,56.31
3665,59.45
3666,59.57
3667,57.09
3668,52.46
3669,46.39
3670,39.98
3671,34.53
3672,31.15
3673,30.31
3674,31.64
3675,34.06
3676,36.24
3677,37.04
3678,35.92
3679,33
3680,28.87
3681,24.3
3682,19.8
3683,15.52
3684,11.18
3685,6.36
3686,0.72
3687,-5.75
3688,-12.67
3689,-19.39
3690,-25.26
3691,-29.89
3692,-33.31
3693,-35.96
3694,-38.48
3695,-41.46
3696,-45.32
3697,-50.33
3698,-56.56
3699,-63.88
3700,-71.72
3701,-78.85
3702,-83.41
3703,-83.21
3704,-76.53
3705,-62.84
3706,-43.24
3707,-20.31
3708,2.71
3709,22.92
3710,38.53
3711,49.15
3712,55.36
3713,58.15
3714,58.38
3715,56.57
3716,53.1
3717,48.48
3718,43.48
3719,39.13
3720,36.29
3721,35.45
3722,36.41
3723,38.4
3724,40.34
3725,41.19
3726,40.36
3727,37.8
3728,33.95
3729,29.45
3730,24.87
3731,20.46
3732,16.09
3733,11.42
3734,6.13
3735,0.16
3736,-6.17
3737,-12.33
3738,-17.75
3739,-22.12
3740,-25.54
3741,-28.43
3742,-31.34
3743,-34.75
3744,-38.88
3745,-43.84
3746,-49.69
3747,-56.43
3748,-63.81
3749,-70.95
3750,-76.26
3751,-77.58
3752,-72.93
3753,-61.33
3754,-43.4
3755,-21.39
3756,1.55
3757,22.33
3758,38.88
3759,50.44
3760,57.36
3761,60.51
3762,60.69
3763,58.44
3764,54.2
3765,48.56
3766,42.49
3767,37.18
3768,33.71
3769,32.59
3770,33.58
3771,35.67
3772,37.55
3773,38.04
3774,36.58
3775,33.33
3776,29.03
3777,24.62
3778,20.77
3779,17.58
3780,14.58
3781,10.98
3782,6.12
3783,-0.15
3784,-7.35
3785,-14.54
3786,-20.73
3787,-25.36
3788,-28.5
3789,-30.74
3790,-32.98
3791,-35.99
3792,-40.23
3793,-45.83
3794,-52.6
3795,-60.05
3796,-67.31
3797,-73.01
3798,-75.46
3799,-72.99
3800,-64.52
3801,-50.12
3802,-31.19
3803,-10.17
3804,10.16
3805,27.44
3806,40.28
3807,48.34
3808,52.05
3809,52.17
3810,49.48
3811,44.75
3812,38.83
3813,32.76
3814,27.63
3815,24.33
3816,23.22
3817,23.99
3818,25.75
3819,27.41
3820,28.07
3821,27.31
3822,25.25
3823,22.37
3824,19.13
3825,15.77
3826,12.15
3827,7.87
3828,2.54
3829,-3.94
3830,-11.2
3831,-18.51
3832,-25
3833,-30.07
3834,-33.6
3835,-36.07
3836,-38.34
3837,-41.4
3838,-45.96
3839,-52.21
3840,-59.55
3841,-66.64
3842,-71.58
3843,-72.38
3844,-67.57
3845,-56.7
3846,-40.54
3847,-20.94
3848,-0.29
3849,19.14
3850,35.71
3851,48.46
3852,57.07
3853,61.55
3854,62.12
3855,59.24
3856,53.76
3857,46.92
3858,40.18
3859,34.89
3860,31.83
3861,31.04
3862,31.82
3863,33.11
3864,33.9
3865,33.55
3866,31.94
3867,29.36
3868,26.21
3869,22.75
3870,18.99
3871,14.7
3872,9.64
3873,3.74
3874,-2.79
3875,-9.47
3876,-15.77
3877,-21.23
3878,-25.67
3879,-29.19
3880,-32.09
3881,-34.81
3882,-37.84
3883,-41.74
3884,-47.02
3885,-53.91
3886,-62
3887,-69.95
3888,-75.62
3889,-76.53
3890,-70.73
3891,-57.67
3892,-38.56
3893,-16.06
3894,6.56
3895,26.52
3896,42.24
3897,53.39
3898,60.49
3899,64.2
3900,65
3901,63.1
3902,58.92
3903,53.25
3904,47.38
3905,42.69
3906,40.13
3907,39.88
3908,41.27
3909,43.11
3910,44.21
3911,43.82
3912,41.81
3913,38.55
3914,34.62
3915,30.49
3916,26.31
3917,21.93
3918,17.13
3919,11.75
3920,5.84
3921,-0.39
3922,-6.65
3923,-12.67
3924,-18.32
3925,-23.53
3926,-28.29
3927,-32.61
3928,-36.48
3929,-40.03
3930,-43.52
3931,-47.47
3932,-52.47
3933,-58.99
3934,-66.87
3935,-75.07
3936,-81.6
3937,-83.96
3938,-79.96
3939,-68.58
3940,-50.58
3941,-28.29
3942,-4.95
3943,16.4
3944,33.78
3945,46.48
3946,54.82
3947,59.54
3948,61.24
3949,60.34
3950,57.23
3951,52.64
3952,47.65
3953,43.53
3954,41.21
3955,40.97
3956,42.26
3957,44.03
3958,45.17
3959,45.04
3960,43.61
3961,41.32
3962,38.7
3963,35.98
3964,32.95
3965,29.17
3966,24.27
3967,18.28
3968,11.71
3969,5.27
3970,-0.43
3971,-5.2
3972,-9.32
3973,-13.31
3974,-17.61
3975,-22.31
3976,-27.09
3977,-31.4
3978,-34.81
3979,-37.22
3980,-39.03
3981,-40.93
3982,-43.76
3983,-48.16
3984,-54.41
3985,-62.2
3986,-70.53
3987,-77.68
3988,-81.49
3989,-79.88
3990,-71.55
3991,-56.48
3992,-36.18
3993,-13.31
3994,9.09
3995,28.4
3996,43.04
3997,52.56
3998,57.38
3999,58.33
4000,56.3
4001,52.16
4002,46.79
4003,41.12
4004,36.11
4005,32.51
4006,30.73
4007,30.66
4008,31.79
4009,33.34
4010,34.54
4011,34.81
4012,33.85
4013,31.63
4014,28.26
4015,24.02
4016,19.22
4017,14.21
4018,9.28
4019,4.55
4020,-0.03
4021,-4.64
4022,-9.45
4023,-14.44
4024,-19.36
4025,-23.83
4026,-27.51
4027,-30.33
4028,-32.58
4029,-34.75
4030,-37.38
4031,-40.82
4032,-45.25
4033,-50.68
4034,-57
4035,-63.81
4036,-70.19
4037,-74.63
4038,-75.27
4039,-70.43
4040,-59.34
4041,-42.65
4042,-22.36
4043,-1.25
4044,17.93
4045,33.25
4046,43.9
4047,49.95
4048,52
4049,50.76
4050,46.91
4051,41.18
4052,34.51
4053,28.06
4054,22.98
4055,20.18
4056,19.93
4057,21.81
4058,24.74
4059,27.44
4060,28.81
4061,28.28
4062,25.98
4063,22.52
4064,18.66
4065,14.89
4066,11.22
4067,7.28
4068,2.57
4069,-3.17
4070,-9.72
4071,-16.43
4072,-22.47
4073,-27.22
4074,-30.51
4075,-32.78
4076,-34.81
4077,-37.51
4078,-41.6
4079,-47.41
4080,-54.81
4081,-63.02
4082,-70.69
4083,-75.99
4084,-77.03
4085,-72.37
4086,-61.53
4087,-45.34
4088,-25.71
4089,-5.15
4090,13.92
4091,29.75
4092,41.46
4093,48.91
4094,52.41
4095,52.5
4096,49.81
4097,45.15
4098,39.53
4099,34.07
4100,29.84
4101,27.52
4102,27.25
4103,28.59
4104,30.67
4105,32.46
4106,33.09
4107,32.14
4108,29.6
4109,25.9
4110,21.57
4111,17.07
4112,12.58
4113,7.96
4114,2.95
4115,-2.7
4116,-9
4117,-15.63
4118,-22.08
4119,-27.75
4120,-32.27
4121,-35.61
4122,-38.16
4123,-40.57
4124,-43.64
4125,-48.04
4126,-54.17
4127,-61.93
4128,-70.49
4129,-78.34
4130,-83.42
4131,-83.62
4132,-77.49
4133,-64.77
4134,-46.6
4135,-25.28
4136,-3.53
4137,16.22
4138,32.38
4139,44.31
4140,52.1
4141,56.14
4142,56.93
4143,55.02
4144,51.11
4145,46.17
4146,41.32
4147,37.57
4148,35.52
4149,35.22
4150,36.16
4151,37.52
4152,38.51
4153,38.52
4154,37.32
4155,34.93
4156,31.53
4157,27.39
4158,22.77
4159,17.97
4160,13.21
4161,8.59
4162,4.05
4163,-0.66
4164,-5.8
4165,-11.46
4166,-17.43
4167,-23.21
4168,-28.22
4169,-32.11
4170,-34.97
4171,-37.35
4172,-40.05
4173,-43.84
4174,-49.18
4175,-56.13
4176,-64.23
4177,-72.39
4178,-78.97
4179,-81.98
4180,-79.53
4181,-70.46
4182,-54.93
4183,-34.49
4184,-11.75
4185,10.39
4186,29.54
4187,44.3
4188,54.26
4189,59.73
4190,61.39
4191,60.05
4192,56.65
4193,52.25
4194,47.89
4195,44.45
4196,42.36
4197,41.55
4198,41.58
4199,41.86
4200,41.95
4201,41.63
4202,40.86
4203,39.62
4204,37.75
4205,35
4206,31.19
4207,26.28
4208,20.6
4209,14.7
4210,9.14
4211,4.31
4212,0.21
4213,-3.48
4214,-7.23
4215,-11.36
4216,-15.92
4217,-20.64
4218,-25.11
4219,-28.97
4220,-32.12
4221,-34.76
4222,-37.29
4223,-40.2
4224,-43.95
4225,-48.96
4226,-55.49
4227,-63.42
4228,-71.99
4229,-79.61
4230,-83.94
4231,-82.59
4232,-73.93
4233,-57.89
4234,-36.28
4235,-12.27
4236,10.61
4237,29.57
4238,43.24
4239,51.66
4240,55.74
4241,56.56
4242,54.95
4243,51.43
4244,46.51
4245,40.96
4246,35.79
4247,32.06
4248,30.47
4249,31.04
4250,33.09
4251,35.5
4252,37.14
4253,37.25
4254,35.67
4255,32.72
4256,28.99
4257,25.03
4258,21.11
4259,17.14
4260,12.88
4261,8.08
4262,2.68
4263,-3.09
4264,-8.84
4265,-14.17
4266,-18.85
4267,-22.89
4268,-26.52
4269,-30.03
4270,-33.61
4271,-37.3
4272,-41.09
4273,-45.12
4274,-49.71
4275,-55.29
4276,-61.93
4277,-68.92
4278,-74.6
4279,-76.66
4280,-72.95
4281,-62.36
4282,-45.44
4283,-24.36
4284,-2.14
4285,18.26
4286,34.88
4287,46.95
4288,54.68
4289,58.63
4290,59.31
4291,57
4292,52.08
4293,45.34
4294,38.08
4295,31.85
4296,27.98
4297,27
4298,28.43
4299,31
4300,33.17
4301,33.74
4302,32.26
4303,29.03
4304,24.81
4305,20.34
4306,15.99
4307,11.6
4308,6.69
4309,0.81
4310,-6.14
4311,-13.77
4312,-21.32
4313,-27.97
4314,-33.25
4315,-37.16
4316,-40.23
4317,-43.14
4318,-46.51
4319,-50.7
4320,-55.78
4321,-61.58
4322,-67.65
4323,-73.17
4324,-76.88
4325,-77.15
4326,-72.41
4327,-61.77
4328,-45.48
4329,-25.11
4330,-3.19
4331,17.56
4332,34.96
4333,47.83
4334,55.98
4335,59.82
4336,60
4337,57.23
4338,52.29
4339,46.19
4340,40.17
4341,35.45
4342,32.89
4343,32.61
4344,33.99
4345,35.88
4346,37.11
4347,36.95
4348,35.27
4349,32.45
4350,29.07
4351,25.55
4352,21.98
4353,18.1
4354,13.49
4355,7.88
4356,1.31
4357,-5.77
4358,-12.67
4359,-18.72
4360,-23.51
4361,-27.14
4362,-30.16
4363,-33.42
4364,-37.8
4365,-43.88
4366,-51.62
4367,-60.13
4368,-67.69
4369,-72.05
4370,-71.05
4371,-63.4
4372,-49.23
4373,-30.13
4374,-8.74
4375,12.11
4376,30.18
4377,44.28
4378,54.14
4379,60.03
4380,62.29
4381,61.21
4382,57.2
4383,51.04
4384,43.97
4385,37.48
4386,32.83
4387,30.66
4388,30.77
4389,32.3
4390,34.1
4391,35.17
4392,34.93
4393,33.26
4394,30.38
4395,26.6
4396,22.22
4397,17.43
4398,12.34
4399,7.06
4400,1.69
4401,-3.71
4402,-9.1
4403,-14.46
4404,-19.75
4405,-24.83
4406,-29.5
4407,-33.55
4408,-36.87
4409,-39.62
4410,-42.25
4411,-45.41
4412,-49.83
4413,-56.03
4414,-64.04
4415,-73.07
4416,-81.4
4417,-86.65
4418,-86.31
4419,-78.6
4420,-63.18
4421,-41.45
4422,-16.26
4423,8.99
4424,31.34
4425,48.94
4426,61.22
4427,68.51
4428,71.56
4429,71.11
4430,67.91
4431,62.8
4432,56.92
4433,51.5
4434,47.59
4435,45.66
4436,45.48
4437,46.25
4438,47.08
4439,47.28
4440,46.68
4441,45.39
4442,43.6
4443,41.27
4444,38.12
4445,33.8
4446,28.2
4447,21.6
4448,14.64
4449,8.07
4450,2.37
4451,-2.43
4452,-6.72
4453,-11.09
4454,-15.92
4455,-21.2
4456,-26.53
4457,-31.33
4458,-35.19
4459,-38.09
4460,-40.41
4461,-42.78
4462,-45.87
4463,-50.23
4464,-56.16
4465,-63.64
4466,-72.12
4467,-80.34
4468,-86.29
4469,-87.53
4470,-81.89
4471,-68.33
4472,-47.54
4473,-22.02
4474,4.68
4475,28.99
4476,48.35
4477,61.72
4478,69.45
4479,72.65
4480,72.55
4481,70.12
4482,66.02
4483,60.85
4484,55.34
4485,50.33
4486,46.58
4487,44.53
4488,44.16
4489,44.92
4490,46.04
4491,46.71
4492,46.34
4493,44.67
4494,41.74
4495,37.78
4496,33.04
4497,27.76
4498,22.08
4499,16.16
4500,10.13
4501,4.2
4502,-1.43
4503,-6.65
4504,-11.46
4505,-15.96
4506,-20.3
4507,-24.59
4508,-28.81
4509,-32.81
4510,-36.43
4511,-39.54
4512,-42.25
4513,-44.91
4514,-48.18
4515,-52.79
4516,-59.19
4517,-67.06
4518,-75.04
4519,-80.77
4520,-81.55
4521,-75.29
4522,-61.38
4523,-41.1
4524,-17.29
4525,6.59
4526,27.57
4527,43.85
4528,54.98
4529,61.42
4530,63.87
4531,62.9
4532,58.93
4533,52.47
4534,44.54
4535,36.63
4536,30.39
4537,27.03
4538,26.85
4539,29.09
4540,32.27
4541,34.78
4542,35.5
4543,34.14
4544,31.15
4545,27.31
4546,23.33
4547,19.48
4548,15.66
4549,11.47
4550,6.56
4551,0.81
4552,-5.58
4553,-12.17
4554,-18.44
4555,-23.96
4556,-28.5
4557,-32.12
4558,-35.07
4559,-37.68
4560,-40.36
4561,-43.54
4562,-47.67
4563,-53.09
4564,-59.68
4565,-66.58
4566,-72.09
4567,-73.99
4568,-70.16
4569,-59.51
4570,-42.55
4571,-21.34
4572,1.1
4573,21.78
4574,38.58
4575,50.62
4576,58.02
4577,61.4
4578,61.37
4579,58.4
4580,52.98
4581,45.96
4582,38.64
4583,32.52
4584,28.79
4585,27.83
4586,29.05
4587,31.08
4588,32.42
4589,32.06
4590,29.85
4591,26.33
4592,22.39
4593,18.63
4594,15.08
4595,11.2
4596,6.3
4597,-0.05
4598,-7.59
4599,-15.49
4600,-22.64
4601,-28.18
4602,-31.88
4603,-34.28
4604,-36.34
4605,-39.11
4606,-43.33
4607,-49.24
4608,-56.51
4609,-64.28
4610,-71.19
4611,-75.44
4612,-75.12
4613,-68.73
4614,-55.77
4615,-37.15
4616,-15.11
4617,7.31
4618,27.2
4619,42.53
4620,52.5
4621,57.44
4622,58.32
4623,56.23
4624,52.09
4625,46.65
4626,40.63
4627,34.8
4628,29.99
4629,26.88
4630,25.83
4631,26.71
4632,28.85
4633,31.25
4634,32.81
4635,32.73
4636,30.67
4637,26.88
4638,22.01
4639,16.83
4640,11.93
4641,7.48
4642,3.26
4643,-1.23
4644,-6.41
4645,-12.38
4646,-18.83
4647,-25.14
4648,-30.61
4649,-34.82
4650,-37.79
4651,-39.99
4652,-42.21
4653,-45.18
4654,-49.45
4655,-55.22
4656,-62.42
4657,-70.55
4658,-78.63
4659,-85.09
4660,-87.87
4661,-84.91
4662,-74.83
4663,-57.69
4664,-35.18
4665,-10.33
4666,13.41
4667,33.19
4668,47.47
4669,56.14
4670,60.07
4671,60.49
4672,58.49
4673,54.88
4674,50.36
4675,45.63
4676,41.47
4677,38.6
4678,37.38
4679,37.64
4680,38.79
4681,40
4682,40.58
4683,40.2
4684,38.93
4685,37.04
4686,34.78
4687,32.18
4688,29.02
4689,24.98
4690,19.87
4691,13.79
4692,7.23
4693,0.89
4694,-4.59
4695,-8.9
4696,-12.26
4697,-15.29
4698,-18.7
4699,-22.99
4700,-28.12
4701,-33.57
4702,-38.63
4703,-42.73
4704,-45.77
4705,-48.19
4706,-50.85
4707,-54.69
4708,-60.42
4709,-68.15
4710,-77.07
4711,-85.42
4712,-90.72
4713,-90.44
4714,-82.86
4715,-67.78
4716,-46.78
4717,-22.77
4718,0.92
4719,21.52
4720,37.42
4721,48.22
4722,54.3
4723,56.28
4724,54.8
4725,50.52
4726,44.37
4727,37.64
4728,31.78
4729,27.94
4730,26.58
4731,27.3
4732,29.04
4733,30.56
4734,31.05
4735,30.33
4736,28.8
4737,26.99
4738,25.21
4739,23.27
4740,20.59
4741,16.65
4742,11.37
4743,5.26
4744,-0.79
4745,-5.92
4746,-9.8
4747,-12.73
4748,-15.42
4749,-18.58
4750,-22.5
4751,-26.94
4752,-31.32
4753,-35.06
4754,-37.93
4755,-40.18
4756,-42.31
4757,-44.88
4758,-48.31
4759,-52.79
4760,-58.34
4761,-64.67
4762,-71.05
4763,-76.12
4764,-78
4765,-74.71
4766,-64.9
4767,-48.56
4768,-27.26
4769,-3.86
4770,18.39
4771,36.78
4772,49.87
4773,57.58
4774,60.8
4775,60.73
4776,58.36
4777,54.36
4778,49.18
4779,43.39
4780,37.79
4781,33.33
4782,30.8
4783,30.45
4784,31.88
4785,34.1
4786,35.92
4787,36.32
4788,34.8
4789,31.5
4790,26.97
4791,21.99
4792,17.14
4793,12.64
4794,8.33
4795,3.8
4796,-1.32
4797,-7.14
4798,-13.32
4799,-19.29
4800,-24.39
4801,-28.3
4802,-31.16
4803,-33.51
4804,-36.07
4805,-39.36
4806,-43.61
4807,-48.75
4808,-54.62
4809,-61.04
4810,-67.63
4811,-73.56
4812,-77.32
4813,-76.97
4814,-70.74
4815,-57.87
4816,-39.15
4817,-16.89
4818,5.75
4819,25.73
4820,41.04
4821,51.04
4822,56.24
4823,57.75
4824,56.68
4825,53.87
4826,49.9
4827,45.25
4828,40.53
4829,36.43
4830,33.55
4831,32.24
4832,32.41
4833,33.56
4834,34.94
4835,35.79
4836,35.58
4837,34.1
4838,31.39
4839,27.7
4840,23.25
4841,18.24
4842,12.81
4843,7.16
4844,1.55
4845,-3.72
4846,-8.4
4847,-12.41
4848,-15.92
4849,-19.24
4850,-22.72
4851,-26.53
4852,-30.6
4853,-34.68
4854,-38.49
4855,-41.83
4856,-44.79
4857,-47.74
4858,-51.33
4859,-56.32
4860,-63.11
4861,-71.31
4862,-79.43
4863,-85.05
4864,-85.41
4865,-78.5
4866,-63.92
4867,-43.2
4868,-19.33
4869,4.28
4870,24.85
4871,40.92
4872,52.25
4873,59.3
4874,62.62
4875,62.61
4876,59.64
4877,54.42
4878,48.13
4879,42.27
4880,38.19
4881,36.61
4882,37.39
4883,39.58
4884,41.91
4885,43.26
4886,43.05
4887,41.31
4888,38.51
4889,35.2
4890,31.79
4891,28.36
4892,24.77
4893,20.8
4894,16.34
4895,11.49
4896,6.48
4897,1.67
4898,-2.68
4899,-6.42
4900,-9.57
4901,-12.25
4902,-14.69
4903,-17.2
4904,-20.09
4905,-23.64
4906,-27.95
4907,-32.9
4908,-38.11
4909,-43.06
4910,-47.29
4911,-50.6
4912,-53.19
4913,-55.66
4914,-58.91
4915,-63.81
4916,-70.86
4917,-79.72
4918,-88.96
4919,-96.18
4920,-98.54
4921,-93.65
4922,-80.52
4923,-60.08
4924,-34.98
4925,-8.83
4926,14.97
4927,34.14
4928,47.87
4929,56.53
4930,60.99
4931,62.12
4932,60.52
4933,56.76
4934,51.63
4935,46.26
4936,41.92
4937,39.56
4938,39.46
4939,41.08
4940,43.36
4941,45.19
4942,45.87
4943,45.32
4944,43.89
4945,42.01
4946,39.95
4947,37.62
4948,34.72
4949,31.03
4950,26.49
4951,21.34
4952,15.92
4953,10.6
4954,5.61
4955,1.05
4956,-3.04
4957,-6.66
4958,-9.86
4959,-12.78
4960,-15.68
4961,-18.85
4962,-22.54
4963,-26.79
4964,-31.38
4965,-35.91
4966,-39.93
4967,-43.22
4968,-45.87
4969,-48.36
4970,-51.4
4971,-55.73
4972,-61.83
4973,-69.57
4974,-77.96
4975,-85.17
4976,-88.8
4977,-86.57
4978,-77.09
4979,-60.47
4980,-38.44
4981,-13.86
4982,10.1
4983,30.84
4984,46.9
4985,57.87
4986,64.08
4987,66.13
4988,64.64
4989,60.35
4990,54.26
4991,47.74
4992,42.25
4993,38.95
4994,38.24
4995,39.68
4996,42.14
4997,44.38
4998,45.56
4999,45.44
5000,44.34
5001,42.74
5002,40.92
5003,38.73
5004,35.78
5005,31.62
5006,26.16
5007,19.72
5008,13
5009,6.72
5010,1.37
5011,-3.03
5012,-6.83
5013,-10.52
5014,-14.52
5015,-18.91
5016,-23.49
5017,-27.93
5018,-31.95
5019,-35.44
5020,-38.49
5021,-41.36
5022,-44.35
5023,-47.84
5024,-52.31
5025,-58.25
5026,-65.84
5027,-74.56
5028,-82.86
5029,-88.27
5030,-88.06
5031,-80.21
5032,-64.37
5033,-42.13
5034,-16.7
5035,8.18
5036,29.46
5037,45.46
5038,56.04
5039,62.02
5040,64.46
5041,64.16
5042,61.58
5043,57.13
5044,51.57
5045,46.03
5046,41.81
5047,39.89
5048,40.46
5049,42.87
5050,45.85
5051,48
5052,48.45
5053,47.07
5054,44.43
5055,41.39
5056,38.6
5057,36.12
5058,33.41
5059,29.7
5060,24.42
5061,17.65
5062,10.16
5063,3.13
5064,-2.4
5065,-6.03
5066,-8.22
5067,-10.06
5068,-12.71
5069,-16.83
5070,-22.28
5071,-28.22
5072,-33.59
5073,-37.66
5074,-40.39
5075,-42.39
5076,-44.62
5077,-47.96
5078,-52.96
5079,-59.74
5080,-67.98
5081,-76.86
5082,-85.01
5083,-90.46
5084,-90.94
5085,-84.53
5086,-70.37
5087,-49.24
5088,-23.61
5089,3.04
5090,27.2
5091,46.32
5092,59.33
5093,66.55
5094,69.12
5095,68.4
5096,65.52
5097,61.25
5098,56.28
5099,51.29
5100,47.11
5101,44.51
5102,43.92
5103,45.23
5104,47.69
5105,50.23
5106,51.78
5107,51.67
5108,49.85
5109,46.81
5110,43.26
5111,39.74
5112,36.36
5113,32.76
5114,28.36
5115,22.75
5116,16.04
5117,8.88
5118,2.26
5119,-2.96
5120,-6.49
5121,-8.78
5122,-10.8
5123,-13.57
5124,-17.71
5125,-23.07
5126,-28.88
5127,-34.1
5128,-37.97
5129,-40.35
5130,-41.81
5131,-43.33
5132,-45.9
5133,-50.22
5134,-56.52
5135,-64.51
5136,-73.36
5137,-81.68
5138,-87.49
5139,-88.61
5140,-83.13
5141,-70.18
5142,-50.45
5143,-26.18
5144,-0.64
5145,22.75
5146,41.44
5147,54.16
5148,61.02
5149,62.98
5150,61.34
5151,57.35
5152,52.02
5153,46.26
5154,40.93
5155,36.78
5156,34.35
5157,33.81
5158,34.85
5159,36.81
5160,38.95
5161,40.62
5162,41.44
5163,41.27
5164,40.08
5165,37.88
5166,34.65
5167,30.45
5168,25.45
5169,19.89
5170,14.07
5171,8.24
5172,2.53
5173,-2.99
5174,-8.28
5175,-13.29
5176,-17.92
5177,-22.08
5178,-25.73
5179,-28.9
5180,-31.69
5181,-34.25
5182,-36.77
5183,-39.5
5184,-42.9
5185,-47.48
5186,-53.7
5187,-61.49
5188,-69.93
5189,-77.1
5190,-80.4
5191,-77.43
5192,-66.84
5193,-49.08
5194,-26.4
5195,-2.12
5196,20.37
5197,38.66
5198,51.69
5199,59.66
5200,63.34
5201,63.6
5202,61.02
5203,56.11
5204,49.55
5205,42.36
5206,35.85
5207,31.23
5208,29.18
5209,29.61
5210,31.74
5211,34.39
5212,36.48
5213,37.32
5214,36.77
5215,35.04
5216,32.45
5217,29.21
5218,25.28
5219,20.55
5220,14.98
5221,8.8
5222,2.44
5223,-3.58
5224,-8.95
5225,-13.69
5226,-18.07
5227,-22.45
5228,-27.01
5229,-31.6
5230,-35.84
5231,-39.37
5232,-42.08
5233,-44.31
5234,-46.84
5235,-50.65
5236,-56.51
5237,-64.56
5238,-73.9
5239,-82.56
5240,-87.87
5241,-87.2
5242,-78.87
5243,-62.85
5244,-40.9
5245,-16.05
5246,8.34
5247,29.54
5248,46.01
5249,57.41
5250,64.17
5251,67
5252,66.54
5253,63.4
5254,58.35
5255,52.45
5256,47.01
5257,43.19
5258,41.65
5259,42.24
5260,44.15
5261,46.29
5262,47.75
5263,48.13
5264,47.56
5265,46.39
5266,44.86
5267,42.87
5268,40.04
5269,35.95
5270,30.51
5271,24.04
5272,17.26
5273,10.93
5274,5.61
5275,1.41
5276,-2.01
5277,-5.21
5278,-8.76
5279,-12.91
5280,-17.63
5281,-22.58
5282,-27.36
5283,-31.63
5284,-35.28
5285,-38.45
5286,-41.46
5287,-44.77
5288,-48.93
5289,-54.52
5290,-61.9
5291,-70.95
5292,-80.68
5293,-89.13
5294,-93.64
5295,-91.64
5296,-81.6
5297,-63.76
5298,-40.28
5299,-14.6
5300,9.63
5301,29.68
5302,44.31
5303,53.71
5304,58.82
5305,60.61
5306,59.72
5307,56.51
5308,51.44
5309,45.43
5310,39.82
5311,36.02
5312,34.85
5313,36.22
5314,39.08
5315,41.94
5316,43.48
5317,43.12
5318,41.12
5319,38.29
5320,35.45
5321,32.97
5322,30.6
5323,27.65
5324,23.43
5325,17.73
5326,10.94
5327,4.02
5328,-2
5329,-6.44
5330,-9.29
5331,-11.25
5332,-13.33
5333,-16.43
5334,-20.86
5335,-26.29
5336,-31.89
5337,-36.8
5338,-40.5
5339,-43.07
5340,-45.08
5341,-47.37
5342,-50.7
5343,-55.57
5344,-62.12
5345,-70.05
5346,-78.51
5347,-85.99
5348,-90.42
5349,-89.57
5350,-81.75
5351,-66.53
5352,-45.17
5353,-20.4
5354,4.32
5355,25.8
5356,42.03
5357,52.43
5358,57.64
5359,58.91
5360,57.51
5361,54.38
5362,50.17
5363,45.4
5364,40.75
5365,36.98
5366,34.81
5367,34.63
5368,36.24
5369,38.86
5370,41.44
5371,43.01
5372,43.04
5373,41.59
5374,39.12
5375,36.14
5376,32.94
5377,29.42
5378,25.22
5379,20.11
5380,14.16
5381,7.85
5382,1.87
5383,-3.24
5384,-7.33
5385,-10.74
5386,-14.1
5387,-18.01
5388,-22.67
5389,-27.82
5390,-32.82
5391,-37.03
5392,-40.17
5393,-42.5
5394,-44.81
5395,-48.16
5396,-53.44
5397,-60.99
5398,-70.19
5399,-79.35
5400,-86.01
5401,-87.55
5402,-82.06
5403,-69.04
5404,-49.69
5405,-26.6
5406,-2.95
5407,18.44
5408,35.78
5409,48.45
5410,56.64
5411,60.86
5412,61.65
5413,59.44
5414,54.88
5415,48.99
5416,43.14
5417,38.7
5418,36.58
5419,36.88
5420,38.89
5421,41.41
5422,43.29
5423,43.9
5424,43.27
5425,41.87
5426,40.23
5427,38.6
5428,36.74
5429,34.17
5430,30.41
5431,25.34
5432,19.26
5433,12.83
5434,6.75
5435,1.54
5436,-2.62
5437,-5.91
5438,-8.74
5439,-11.55
5440,-14.71
5441,-18.36
5442,-22.5
5443,-26.94
5444,-31.41
5445,-35.6
5446,-39.24
5447,-42.24
5448,-44.76
5449,-47.31
5450,-50.71
5451,-55.85
5452,-63.25
5453,-72.55
5454,-82.21
5455,-89.61
5456,-91.79
5457,-86.42
5458,-72.77
5459,-52.12
5460,-27.39
5461,-2.23
5462,20.16
5463,37.82
5464,50.21
5465,57.84
5466,61.58
5467,62.16
5468,60.09
5469,55.84
5470,50.15
5471,44.17
5472,39.22
5473,36.37
5474,36.03
5475,37.75
5476,40.39
5477,42.66
5478,43.61
5479,42.97
5480,41.14
5481,38.8
5482,36.51
5483,34.39
5484,32.09
5485,29.06
5486,24.92
5487,19.69
5488,13.8
5489,7.95
5490,2.78
5491,-1.37
5492,-4.56
5493,-7.17
5494,-9.72
5495,-12.67
5496,-16.27
5497,-20.5
5498,-25.13
5499,-29.79
5500,-34.19
5501,-38.09
5502,-41.42
5503,-44.26
5504,-46.83
5505,-49.5
5506,-52.82
5507,-57.43
5508,-63.8
5509,-71.81
5510,-80.3
5511,-87.13
5512,-89.52
5513,-85.09
5514,-72.77
5515,-53.43
5516,-29.69
5517,-5.07
5518,17.11
5519,34.73
5520,47.02
5521,54.32
5522,57.4
5523,56.97
5524,53.61
5525,47.97
5526,41.11
5527,34.47
5528,29.54
5529,27.34
5530,27.98
5531,30.61
5532,33.77
5533,36.04
5534,36.66
5535,35.71
5536,33.89
5537,32.01
5538,30.43
5539,28.89
5540,26.67
5541,23.08
5542,17.89
5543,11.54
5544,4.93
5545,-0.97
5546,-5.63
5547,-9.1
5548,-11.98
5549,-15.03
5550,-18.73
5551,-23.12
5552,-27.69
5553,-31.81
5554,-34.98
5555,-37.15
5556,-38.73
5557,-40.4
5558,-42.88
5559,-46.71
5560,-52.19
5561,-59.33
5562,-67.75
5563,-76.46
5564,-83.79
5565,-87.48
5566,-85.3
5567,-75.76
5568,-58.9
5569,-36.48
5570,-11.56
5571,12.41
5572,32.58
5573,47.45
5574,56.87
5575,61.66
5576,62.91
5577,61.54
5578,58.21
5579,53.46
5580,48.03
5581,42.85
5582,38.96
5583,37.05
5584,37.27
5585,39.09
5586,41.49
5587,43.46
5588,44.28
5589,43.81
5590,42.28
5591,40.04
5592,37.27
5593,33.87
5594,29.53
5595,24.03
5596,17.47
5597,10.34
5598,3.4
5599,-2.66
5600,-7.48
5601,-11.21
5602,-14.44
5603,-17.89
5604,-22.05
5605,-26.97
5606,-32.23
5607,-37.12
5608,-41.03
5609,-43.73
5610,-45.54
5611,-47.31
5612,-50.13
5613,-55.02
5614,-62.45
5615,-71.99
5616,-82.07
5617,-90.2
5618,-93.5
5619,-89.62
5620,-77.58
5621,-58.19
5622,-33.9
5623,-8.03
5624,16.2
5625,36.5
5626,51.74
5627,61.8
5628,67.12
5629,68.29
5630,66
5631,61.13
5632,54.88
5633,48.73
5634,44.05
5635,41.66
5636,41.59
5637,43.12
5638,45.08
5639,46.46
5640,46.74
5641,46
5642,44.69
5643,43.17
5644,41.49
5645,39.28
5646,36.02
5647,31.37
5648,25.42
5649,18.73
5650,12.06
5651,6.12
5652,1.24
5653,-2.7
5654,-6.16
5655,-9.69
5656,-13.72
5657,-18.31
5658,-23.21
5659,-28
5660,-32.29
5661,-35.91
5662,-38.97
5663,-41.84
5664,-45.03
5665,-49.1
5666,-54.58
5667,-61.84
5668,-70.79
5669,-80.59
5670,-89.42
5671,-94.72
5672,-93.81
5673,-84.85
5674,-67.73
5675,-44.32
5676,-17.94
5677,7.59
5678,29.2
5679,45.25
5680,55.61
5681,61.11
5682,62.84
5683,61.67
5684,58.19
5685,52.94
5686,46.73
5687,40.66
5688,35.92
5689,33.34
5690,33.1
5691,34.59
5692,36.74
5693,38.44
5694,39.03
5695,38.41
5696,36.94
5697,35.03
5698,32.84
5699,30.11
5700,26.4
5701,21.38
5702,15.16
5703,8.35
5704,1.8
5705,-3.76
5706,-8.11
5707,-11.65
5708,-15.12
5709,-19.25
5710,-24.32
5711,-30.04
5712,-35.67
5713,-40.42
5714,-43.84
5715,-46.09
5716,-47.92
5717,-50.41
5718,-54.56
5719,-60.95
5720,-69.33
5721,-78.43
5722,-86.13
5723,-89.84
5724,-87.27
5725,-77.16
5726,-59.82
5727,-37.1
5728,-11.93
5729,12.51
5730,33.61
5731,49.8
5732,60.56
5733,66.19
5734,67.41
5735,65.13
5736,60.32
5737,54.08
5738,47.59
5739,41.99
5740,38.17
5741,36.58
5742,37.1
5743,39.15
5744,41.83
5745,44.3
5746,45.84
5747,46.02
5748,44.64
5749,41.74
5750,37.46
5751,32.13
5752,26.16
5753,19.96
5754,13.85
5755,7.89
5756,1.93
5757,-4.26
5758,-10.72
5759,-17.23
5760,-23.27
5761,-28.29
5762,-32
5763,-34.59
5764,-36.67
5765,-39.09
5766,-42.63
5767,-47.78
5768,-54.6
5769,-62.68
5770,-71.03
5771,-78.07
5772,-81.77
5773,-80.04
5774,-71.38
5775,-55.54
5776,-33.86
5777,-9
5778,15.72
5779,37.34
5780,53.91
5781,64.82
5782,70.5
5783,71.95
5784,70.25
5785,66.37
5786,61.16
5787,55.45
5788,50.12
5789,45.94
5790,43.44
5791,42.78
5792,43.62
5793,45.35
5794,47.2
5795,48.49
5796,48.66
5797,47.42
5798,44.67
5799,40.48
5800,35.15
5801,29.07
5802,22.74
5803,16.6
5804,10.85
5805,5.47
5806,0.18
5807,-5.32
5808,-11.21
5809,-17.37
5810,-23.47
5811,-29.11
5812,-33.95
5813,-37.97
5814,-41.37
5815,-44.53
5816,-47.93
5817,-52.07
5818,-57.42
5819,-64.25
5820,-72.31
5821,-80.44
5822,-86.58
5823,-88.05
5824,-82.52
5825,-68.88
5826,-47.95
5827,-22.43
5828,3.9
5829,27.4
5830,45.57
5831,57.52
5832,63.81
5833,65.72
5834,64.57
5835,61.32
5836,56.57
5837,50.84
5838,44.82
5839,39.43
5840,35.61
5841,33.98
5842,34.49
5843,36.46
5844,38.75
5845,40.19
5846,39.96
5847,37.83
5848,34.13
5849,29.49
5850,24.58
5851,19.78
5852,15.16
5853,10.48
5854,5.38
5855,-0.36
5856,-6.7
5857,-13.25
5858,-19.48
5859,-24.86
5860,-29.14
5861,-32.46
5862,-35.21
5863,-37.92
5864,-41
5865,-44.69
5866,-49.12
5867,-54.5
5868,-60.99
5869,-68.45
5870,-76.07
5871,-82.06
5872,-83.97
5873,-79.44
5874,-67.26
5875,-48.09
5876,-24.51
5877,-0.18
5878,21.36
5879,37.81
5880,48.58
5881,54.34
5882,56.31
5883,55.41
5884,52.08
5885,46.55
5886,39.31
5887,31.49
5888,24.66
5889,20.32
5890,19.24
5891,21.12
5892,24.6
5893,27.94
5894,29.7
5895,29.27
5896,27
5897,23.78
5898,20.49
5899,17.5
5900,14.49
5901,10.75
5902,5.62
5903,-1.01
5904,-8.61
5905,-16.19
5906,-22.72
5907,-27.6
5908,-30.87
5909,-33.15
5910,-35.32
5911,-38.18
5912,-42.22
5913,-47.65
5914,-54.39
5915,-62.1
5916,-69.99
5917,-76.65
5918,-80.16
5919,-78.4
5920,-69.88
5921,-54.38
5922,-33.31
5923,-9.46
5924,13.82
5925,33.61
5926,48.21
5927,57.29
5928,61.59
5929,62.29
5930,60.49
5931,56.95
5932,52.23
5933,46.87
5934,41.59
5935,37.27
5936,34.67
5937,34.18
5938,35.56
5939,37.96
5940,40.18
5941,41.13
5942,40.13
5943,37.17
5944,32.78
5945,27.71
5946,22.65
5947,17.88
5948,13.25
5949,8.35
5950,2.73
5951,-3.74
5952,-10.77
5953,-17.74
5954,-23.91
5955,-28.8
5956,-32.39
5957,-35.1
5958,-37.62
5959,-40.62
5960,-44.56
5961,-49.71
5962,-56.15
5963,-63.79
5964,-72.13
5965,-79.96
5966,-85.32
5967,-85.82
5968,-79.4
5969,-65.22
5970,-44.23
5971,-19.13
5972,6.49
5973,29.18
5974,46.66
5975,58.22
5976,64.41
5977,66.46
5978,65.57
5979,62.62
5980,58.23
5981,53.02
5982,47.8
5983,43.48
5984,40.87
5985,40.26
5986,41.32
5987,43.15
5988,44.69
5989,45.13
5990,44.21
5991,42.16
5992,39.45
5993,36.41
5994,33.05
5995,29.05
5996,23.99
5997,17.77
5998,10.73
5999,3.64
6000,-2.6
6001,-7.42
6002,-10.85
6003,-13.54
6004,-16.45
6005,-20.3
6006,-25.27
6007,-30.87
6008,-36.19
6009,-40.42
6010,-43.21
6011,-44.94
6012,-46.56
6013,-49.29
6014,-54.17
6015,-61.68
6016,-71.4
6017,-81.88
6018,-90.77
6019,-95.29
6020,-93.04
6021,-82.76
6022,-64.89
6023,-41.52
6024,-15.81
6025,8.96
6026,30.16
6027,46.33
6028,57.09
6029,62.77
6030,64.01
6031,61.64
6032,56.67
6033,50.32
6034,43.97
6035,38.86
6036,35.75
6037,34.69
6038,35.13
6039,36.2
6040,37.1
6041,37.39
6042,36.98
6043,36.03
6044,34.61
6045,32.6
6046,29.75
6047,25.76
6048,20.62
6049,14.59
6050,8.24
6051,2.18
6052,-3.16
6053,-7.69
6054,-11.67
6055,-15.53
6056,-19.65
6057,-24.15
6058,-28.83
6059,-33.34
6060,-37.34
6061,-40.68
6062,-43.5
6063,-46.16
6064,-49.08
6065,-52.69
6066,-57.4
6067,-63.49
6068,-70.94
6069,-79.01
6070,-86.13
6071,-89.92
6072,-87.89
6073,-78.31
6074,-61.13
6075,-38.16
6076,-12.7
6077,11.56
6078,31.65
6079,46.08
6080,54.85
6081,58.94
6082,59.58
6083,57.71
6084,53.92
6085,48.69
6086,42.7
6087,36.99
6088,32.68
6089,30.65
6090,31.13
6091,33.52
6092,36.67
6093,39.22
6094,40.17
6095,39.12
6096,36.29
6097,32.25
6098,27.62
6099,22.74
6100,17.64
6101,12.18
6102,6.17
6103,-0.36
6104,-7.15
6105,-13.78
6106,-19.78
6107,-24.86
6108,-28.96
6109,-32.27
6110,-35.16
6111,-37.99
6112,-41.04
6113,-44.55
6114,-48.78
6115,-54.08
6116,-60.8
6117,-68.89
6118,-77.47
6119,-84.61
6120,-87.71
6121,-84.24
6122,-72.87
6123,-54.11
6124,-30.41
6125,-5.36
6126,17.47
6127,35.67
6128,48.4
6129,56.18
6130,60.16
6131,61.37
6132,60.35
6133,57.27
6134,52.39
6135,46.37
6136,40.33
6137,35.58
6138,33.09
6139,33.08
6140,34.87
6141,37.22
6142,38.8
6143,38.73
6144,36.81
6145,33.45
6146,29.3
6147,24.9
6148,20.45
6149,15.78
6150,10.61
6151,4.75
6152,-1.73
6153,-8.51
6154,-15.15
6155,-21.27
6156,-26.66
6157,-31.31
6158,-35.36
6159,-38.99
6160,-42.37
6161,-45.71
6162,-49.31
6163,-53.6
6164,-59.14
6165,-66.31
6166,-74.87
6167,-83.6
6168,-90.28
6169,-92.15
6170,-86.85
6171,-73.41
6172,-52.82
6173,-27.85
6174,-2.2
6175,20.76
6176,38.92
6177,51.74
6178,59.81
6179,64.12
6180,65.38
6181,63.92
6182,59.98
6183,54.14
6184,47.56
6185,41.73
6186,37.94
6187,36.76
6188,37.78
6189,39.87
6190,41.72
6191,42.35
6192,41.43
6193,39.19
6194,36.06
6195,32.38
6196,28.22
6197,23.51
6198,18.16
6199,12.27
6200,6.09
6201,-0.12
6202,-6.19
6203,-12.08
6204,-17.83
6205,-23.44
6206,-28.81
6207,-33.75
6208,-38.09
6209,-41.8
6210,-45.09
6211,-48.42
6212,-52.5
6213,-58.1
6214,-65.7
6215,-75.07
6216,-84.9
6217,-92.83
6218,-95.96
6219,-91.83
6220,-79.38
6221,-59.53
6222,-34.94
6223,-9.16
6224,14.53
6225,33.98
6226,48.37
6227,57.85
6228,62.94
6229,64.1
6230,61.77
6231,56.55
6232,49.55
6233,42.31
6234,36.43
6235,33.03
6236,32.38
6237,33.83
6238,36.18
6239,38.16
6240,38.89
6241,38.15
6242,36.16
6243,33.39
6244,30.18
6245,26.66
6246,22.71
6247,18.15
6248,12.86
6249,6.86
6250,0.34
6251,-6.48
6252,-13.28
6253,-19.75
6254,-25.61
6255,-30.61
6256,-34.64
6257,-37.83
6258,-40.6
6259,-43.62
6260,-47.69
6261,-53.56
6262,-61.53
6263,-71.08
6264,-80.65
6265,-87.8
6266,-89.73
6267,-84.3
6268,-70.77
6269,-50.31
6270,-25.7
6271,-0.43
6272,22.36
6273,40.66
6274,53.8
6275,62.03
6276,65.92
6277,65.97
6278,62.57
6279,56.34
6280,48.42
6281,40.46
6282,34.24
6283,31.01
6284,30.96
6285,33.2
6286,36.1
6287,38.08
6288,38.22
6289,36.49
6290,33.57
6291,30.26
6292,26.96
6293,23.47
6294,19.12
6295,13.28
6296,5.72
6297,-3.07
6298,-12.11
6299,-20.31
6300,-26.92
6301,-31.83
6302,-35.58
6303,-38.99
6304,-42.88
6305,-47.83
6306,-54.08
6307,-61.63
6308,-70.1
6309,-78.58
6310,-85.48
6311,-88.61
6312,-85.72
6313,-75.34
6314,-57.5
6315,-34.08
6316,-8.31
6317,16.22
6318,36.69
6319,51.72
6320,61.36
6321,66.51
6322,68.16
6323,66.95
6324,63.27
6325,57.58
6326,50.84
6327,44.44
6328,39.87
6329,38.09
6330,39.04
6331,41.61
6332,44.08
6333,44.9
6334,43.28
6335,39.47
6336,34.41
6337,29.23
6338,24.57
6339,20.32
6340,15.8
6341,10.17
6342,3.01
6343,-5.42
6344,-14.2
6345,-22.18
6346,-28.46
6347,-32.83
6348,-35.83
6349,-38.47
6350,-41.9
6351,-46.92
6352,-53.89
6353,-62.62
6354,-72.34
6355,-81.7
6356,-88.76
6357,-91.3
6358,-87.24
6359,-75.43
6360,-56.19
6361,-31.54
6362,-4.67
6363,20.84
6364,42.16
6365,57.77
6366,67.57
6367,72.41
6368,73.43
6369,71.66
6370,67.88
6371,62.8
6372,57.2
6373,52.01
6374,48.1
6375,46.03
6376,45.85
6377,47.03
6378,48.67
6379,49.78
6380,49.57
6381,47.61
6382,43.92
6383,38.91
6384,33.17
6385,27.32
6386,21.75
6387,16.54
6388,11.41
6389,5.93
6390,-0.17
6391,-6.87
6392,-13.74
6393,-20.18
6394,-25.67
6395,-30.05
6396,-33.56
6397,-36.72
6398,-40.07
6399,-44
6400,-48.76
6401,-54.56
6402,-61.63
6403,-69.96
6404,-78.89
6405,-86.79
6406,-91.13
6407,-89.11
6408,-78.77
6409,-59.96
6410,-34.66
6411,-6.52
6412,20.32
6413,42.57
6414,58.62
6415,68.54
6416,73.49
6417,74.85
6418,73.6
6419,70.23
6420,65.12
6421,58.88
6422,52.57
6423,47.41
6424,44.39
6425,43.82
6426,45.16
6427,47.29
6428,48.91
6429,49.06
6430,47.36
6431,43.97
6432,39.43
6433,34.28
6434,28.89
6435,23.41
6436,17.78
6437,11.93
6438,5.84
6439,-0.37
6440,-6.5
6441,-12.32
6442,-17.67
6443,-22.55
6444,-27.05
6445,-31.31
6446,-35.4
6447,-39.33
6448,-43.09
6449,-46.85
6450,-51.04
6451,-56.32
6452,-63.23
6453,-71.7
6454,-80.54
6455,-87.43
6456,-89.49
6457,-84.23
6458,-70.67
6459,-49.91
6460,-24.86
6461,0.66
6462,23.22
6463,40.67
6464,52.47
6465,59.19
6466,61.78
6467,60.96
6468,57.2
6469,50.94
6470,43.14
6471,35.28
6472,29.12
6473,26.01
6474,26.34
6475,29.28
6476,33.14
6477,36.12
6478,36.96
6479,35.38
6480,32.01
6481,27.88
6482,23.85
6483,20.15
6484,16.42
6485,11.98
6486,6.3
6487,-0.65
6488,-8.31
6489,-15.76
6490,-22.21
6491,-27.24
6492,-31.01
6493,-34.08
6494,-37.09
6495,-40.55
6496,-44.75
6497,-49.85
6498,-55.99
6499,-63.17
6500,-70.91
6501,-77.91
6502,-82.09
6503,-81.06
6504,-73.03
6505,-57.7
6506,-36.59
6507,-12.73
6508,10.39
6509,29.92
6510,44.42
6511,53.86
6512,59.11
6513,61.2
6514,60.77
6515,58.06
6516,53.32
6517,47.13
6518,40.66
6519,35.34
6520,32.32
6521,31.96
6522,33.64
6523,35.96
6524,37.38
6525,36.87
6526,34.2
6527,29.98
6528,25.2
6529,20.65
6530,16.58
6531,12.6
6532,7.98
6533,2.1
6534,-5.14
6535,-13.21
6536,-21.14
6537,-27.9
6538,-32.87
6539,-36.09
6540,-38.23
6541,-40.29
6542,-43.2
6543,-47.55
6544,-53.54
6545,-61.01
6546,-69.38
6547,-77.56
6548,-83.91
6549,-86.29
6550,-82.64
6551,-71.7
6552,-53.71
6553,-30.6
6554,-5.58
6555,17.87
6556,37.03
6557,50.59
6558,58.69
6559,62.37
6560,62.83
6561,61.01
6562,57.48
6563,52.72
6564,47.38
6565,42.41
6566,38.81
6567,37.24
6568,37.73
6569,39.54
6570,41.45
6571,42.19
6572,40.99
6573,37.75
6574,33.12
6575,28.07
6576,23.46
6577,19.61
6578,16.2
6579,12.44
6580,7.53
6581,1.09
6582,-6.57
6583,-14.57
6584,-21.83
6585,-27.52
6586,-31.43
6587,-34
6588,-36.07
6589,-38.54
6590,-42.07
6591,-47
6592,-53.4
6593,-61
6594,-69.05
6595,-76.2
6596,-80.51
6597,-79.82
6598,-72.49
6599,-58.11
6600,-37.89
6601,-14.45
6602,8.92
6603,29.27
6604,44.75
6605,54.84
6606,60.09
6607,61.49
6608,60.01
6609,56.4
6610,51.27
6611,45.33
6612,39.51
6613,34.84
6614,32.17
6615,31.81
6616,33.38
6617,35.87
6618,38
6619,38.67
6620,37.31
6621,34
6622,29.38
6623,24.29
6624,19.42
6625,15.06
6626,11.03
6627,6.84
6628,1.98
6629,-3.77
6630,-10.2
6631,-16.71
6632,-22.56
6633,-27.23
6634,-30.62
6635,-33.1
6636,-35.39
6637,-38.2
6638,-42.09
6639,-47.38
6640,-54.12
6641,-62.07
6642,-70.47
6643,-77.92
6644,-82.45
6645,-81.87
6646,-74.58
6647,-60.27
6648,-40.3
6649,-17.38
6650,5.2
6651,24.59
6652,39.08
6653,48.31
6654,52.84
6655,53.67
6656,51.74
6657,47.79
6658,42.45
6659,36.51
6660,30.92
6661,26.67
6662,24.45
6663,24.41
6664,26.02
6665,28.23
6666,29.87
6667,30.05
6668,28.47
6669,25.43
6670,21.61
6671,17.71
6672,14.13
6673,10.77
6674,7.15
6675,2.66
6676,-3.07
6677,-9.91
6678,-17.22
6679,-24.07
6680,-29.66
6681,-33.65
6682,-36.31
6683,-38.39
6684,-40.76
6685,-44.1
6686,-48.75
6687,-54.71
6688,-61.72
6689,-69.17
6690,-76.03
6691,-80.69
6692,-81.23
6693,-75.92
6694,-64
6695,-46.09
6696,-24.3
6697,-1.62
6698,18.98
6699,35.34
6700,46.56
6701,52.82
6702,54.94
6703,53.86
6704,50.42
6705,45.37
6706,39.53
6707,33.9
6708,29.5
6709,27.11
6710,26.95
6711,28.58
6712,30.98
6713,32.95
6714,33.52
6715,32.24
6716,29.31
6717,25.32
6718,20.95
6719,16.63
6720,12.35
6721,7.76
6722,2.42
6723,-3.9
6724,-10.98
6725,-18.21
6726,-24.79
6727,-30.12
6728,-34
6729,-36.77
6730,-39.17
6731,-42.06
6732,-46.2
6733,-52.05
6734,-59.57
6735,-68.12
6736,-76.36
6737,-82.37
6738,-84.04
6739,-79.62
6740,-68.4
6741,-51.1
6742,-29.72
6743,-7.05
6744,14.19
6745,31.98
6746,45.35
6747,54.19
6748,58.93
6749,60.15
6750,58.47
6751,54.6
6752,49.45
6753,44.11
6754,39.63
6755,36.8
6756,35.84
6757,36.4
6758,37.65
6759,38.64
6760,38.58
6761,37.1
6762,34.25
6763,30.39
6764,26.02
6765,21.48
6766,16.87
6767,12.03
6768,6.72
6769,0.75
6770,-5.83
6771,-12.65
6772,-19.22
6773,-24.99
6774,-29.61
6775,-33.11
6776,-35.86
6777,-38.55
6778,-41.98
6779,-46.88
6780,-53.65
6781,-62.09
6782,-71.22
6783,-79.26
6784,-83.9
6785,-82.89
6786,-74.86
6787,-59.86
6788,-39.53
6789,-16.64
6790,5.77
6791,25.27
6792,40.53
6793,51.27
6794,57.86
6795,60.79
6796,60.48
6797,57.4
6798,52.27
6799,46.27
6800,40.74
6801,36.88
6802,35.22
6803,35.51
6804,36.9
6805,38.3
6806,38.83
6807,38.09
6808,36.08
6809,33.09
6810,29.45
6811,25.37
6812,20.98
6813,16.33
6814,11.41
6815,6.25
6816,0.83
6817,-4.83
6818,-10.61
6819,-16.29
6820,-21.55
6821,-26.1
6822,-29.77
6823,-32.73
6824,-35.38
6825,-38.39
6826,-42.46
6827,-48.16
6828,-55.66
6829,-64.49
6830,-73.31
6831,-80.06
6832,-82.34
6833,-78.15
6834,-66.62
6835,-48.48
6836,-25.93
6837,-2.02
6838,20.27
6839,38.82
6840,52.65
6841,61.74
6842,66.58
6843,67.75
6844,65.79
6845,61.32
6846,55.25
6847,48.8
6848,43.28
6849,39.71
6850,38.44
6851,39.07
6852,40.57
6853,41.79
6854,41.85
6855,40.39
6856,37.59
6857,33.89
6858,29.72
6859,25.32
6860,20.74
6861,15.95
6862,10.93
6863,5.69
6864,0.26
6865,-5.34
6866,-11.08
6867,-16.86
6868,-22.43
6869,-27.48
6870,-31.72
6871,-35.09
6872,-37.81
6873,-40.45
6874,-43.75
6875,-48.44
6876,-55.01
6877,-63.33
6878,-72.5
6879,-80.76
6880,-85.8
6881,-85.35
6882,-78.01
6883,-63.75
6884,-44.08
6885,-21.57
6886,0.88
6887,20.86
6888,36.87
6889,48.36
6890,55.37
6891,58.22
6892,57.3
6893,53.22
6894,46.91
6895,39.71
6896,33.15
6897,28.51
6898,26.44
6899,26.72
6900,28.43
6901,30.31
6902,31.31
6903,30.9
6904,29.1
6905,26.34
6906,23.07
6907,19.57
6908,15.84
6909,11.73
6910,7.06
6911,1.8
6912,-3.92
6913,-9.8
6914,-15.45
6915,-20.56
6916,-24.94
6917,-28.58
6918,-31.65
6919,-34.48
6920,-37.5
6921,-41.27
6922,-46.34
6923,-53.05
6924,-61.11
6925,-69.41
6926,-75.95
6927,-78.29
6928,-74.33
6929,-63.2
6930,-45.69
6931,-24.12
6932,-1.54
6933,19.24
6934,36.38
6935,49.2
6936,57.82
6937,62.58
6938,63.72
6939,61.41
6940,56.1
6941,48.84
6942,41.23
6943,35.06
6944,31.62
6945,31.21
6946,33.03
6947,35.53
6948,37.14
6949,36.87
6950,34.59
6951,30.92
6952,26.71
6953,22.61
6954,18.68
6955,14.53
6956,9.58
6957,3.45
6958,-3.69
6959,-11.24
6960,-18.36
6961,-24.37
6962,-29.04
6963,-32.62
6964,-35.69
6965,-38.92
6966,-42.84
6967,-47.76
6968,-53.89
6969,-61.18
6970,-69.23
6971,-76.95
6972,-82.49
6973,-83.54
6974,-78.06
6975,-65.13
6976,-45.61
6977,-21.97
6978,2.39
6979,24.3
6980,41.69
6981,53.99
6982,61.74
6983,65.88
6984,67.13
6985,65.84
6986,62.17
6987,56.63
6988,50.24
6989,44.42
6990,40.5
6991,39.14
6992,40.06
6993,42.09
6994,43.78
6995,43.92
6996,42.01
6997,38.38
6998,33.8
6999,29.09
7000,24.69
7001,20.52
7002,16.11
7003,10.94
7004,4.76
7005,-2.26
7006,-9.59
7007,-16.56
7008,-22.62
7009,-27.58
7010,-31.6
7011,-35.09
7012,-38.48
7013,-42.09
7014,-46.14
7015,-50.84
7016,-56.55
7017,-63.59
7018,-71.81
7019,-80.19
7020,-86.61
7021,-88.34
7022,-82.92
7023,-69.3
7024,-48.47
7025,-23.3
7026,2.4
7027,25.13
7028,42.79
7029,54.84
7030,61.98
7031,65.32
7032,65.72
7033,63.7
7034,59.6
7035,54.03
7036,48
7037,42.77
7038,39.41
7039,38.39
7040,39.36
7041,41.23
7042,42.68
7043,42.6
7044,40.51
7045,36.64
7046,31.71
7047,26.56
7048,21.76
7049,17.43
7050,13.27
7051,8.77
7052,3.56
7053,-2.39
7054,-8.73
7055,-14.93
7056,-20.44
7057,-25
7058,-28.67
7059,-31.76
7060,-34.66
7061,-37.72
7062,-41.18
7063,-45.28
7064,-50.34
7065,-56.64
7066,-64.12
7067,-71.93
7068,-78.24
7069,-80.57
7070,-76.51
7071,-64.81
7072,-46.03
7073,-22.62
7074,1.86
7075,23.96
7076,41.41
7077,53.53
7078,60.89
7079,64.56
7080,65.37
7081,63.67
7082,59.64
7083,53.72
7084,46.99
7085,40.95
7086,37.01
7087,35.85
7088,37.11
7089,39.54
7090,41.56
7091,41.97
7092,40.32
7093,36.94
7094,32.57
7095,27.97
7096,23.51
7097,19.14
7098,14.57
7099,9.46
7100,3.67
7101,-2.66
7102,-9.17
7103,-15.4
7104,-20.99
7105,-25.76
7106,-29.74
7107,-33.17
7108,-36.31
7109,-39.47
7110,-42.97
7111,-47.19
7112,-52.58
7113,-59.41
7114,-67.41
7115,-75.4
7116,-81.25
7117,-82.41
7118,-76.74
7119,-63.52
7120,-43.87
7121,-20.54
7122,2.97
7123,23.6
7124,39.54
7125,50.37
7126,56.63
7127,59.13
7128,58.47
7129,55.01
7130,49.2
7131,41.95
7132,34.7
7133,29.03
7134,26.1
7135,26.12
7136,28.24
7137,30.89
7138,32.51
7139,32.16
7140,29.82
7141,26.28
7142,22.52
7143,19.24
7144,16.44
7145,13.51
7146,9.65
7147,4.31
7148,-2.4
7149,-9.84
7150,-17.01
7151,-23.09
7152,-27.69
7153,-31.03
7154,-33.7
7155,-36.41
7156,-39.77
7157,-44.15
7158,-49.71
7159,-56.4
7160,-63.8
7161,-70.96
7162,-76.28
7163,-77.77
7164,-73.59
7165,-62.82
7166,-46.02
7167,-25.19
7168,-3.29
7169,16.76
7170,32.88
7171,44.23
7172,51.03
7173,54.05
7174,53.99
7175,51.34
7176,46.5
7177,40.16
7178,33.43
7179,27.7
7180,24.17
7181,23.34
7182,24.78
7183,27.22
7184,29.19
7185,29.54
7186,27.93
7187,24.8
7188,20.98
7189,17.18
7190,13.57
7191,9.77
7192,5.14
7193,-0.79
7194,-7.89
7195,-15.43
7196,-22.35
7197,-27.78
7198,-31.42
7199,-33.74
7200,-35.77
7201,-38.67
7202,-43.3
7203,-49.97
7204,-58.3
7205,-67.23
7206,-75.13
7207,-80.01
7208,-79.89
7209,-73.41
7210,-60.27
7211,-41.57
7212,-19.55
7213,2.89
7214,23.12
7215,39.31
7216,50.73
7217,57.56
7218,60.39
7219,59.89
7220,56.72
7221,51.57
7222,45.38
7223,39.3
7224,34.48
7225,31.7
7226,31.14
7227,32.22
7228,33.91
7229,35.09
7230,34.95
7231,33.25
7232,30.23
7233,26.44
7234,22.35
7235,18.18
7236,13.82
7237,8.97
7238,3.37
7239,-3.03
7240,-9.93
7241,-16.76
7242,-22.93
7243,-27.99
7244,-31.88
7245,-34.9
7246,-37.67
7247,-40.95
7248,-45.47
7249,-51.74
7250,-59.75
7251,-68.77
7252,-77.21
7253,-82.82
7254,-83.19
7255,-76.62
7256,-62.77
7257,-42.98
7258,-19.89
7259,3.32
7260,23.97
7261,40.46
7262,52.34
7263,59.94
7264,63.8
7265,64.36
7266,61.98
7267,57.25
7268,51.16
7269,45.06
7270,40.29
7271,37.73
7272,37.42
7273,38.65
7274,40.22
7275,40.99
7276,40.23
7277,37.84
7278,34.19
7279,29.84
7280,25.28
7281,20.74
7282,16.2
7283,11.49
7284,6.44
7285,0.99
7286,-4.78
7287,-10.65
7288,-16.31
7289,-21.49
7290,-25.96
7291,-29.68
7292,-32.74
7293,-35.45
7294,-38.3
7295,-41.91
7296,-46.94
7297,-53.85
7298,-62.49
7299,-71.82
7300,-79.86
7301,-84.05
7302,-82.02
7303,-72.47
7304,-55.79
7305,-34.05
7306,-10.32
7307,12.27
7308,31.41
7309,45.95
7310,55.74
7311,61.13
7312,62.54
7313,60.41
7314,55.33
7315,48.32
7316,40.79
7317,34.31
7318,30.06
7319,28.48
7320,29.14
7321,30.92
7322,32.55
7323,33.05
7324,32.02
7325,29.66
7326,26.48
7327,23.03
7328,19.6
7329,16.17
7330,12.51
7331,8.33
7332,3.48
7333,-1.99
7334,-7.83
7335,-13.67
7336,-19.14
7337,-23.96
7338,-27.95
7339,-31.14
7340,-33.73
7341,-36.16
7342,-39.06
7343,-43.15
7344,-49.03
7345,-56.79
7346,-65.66
7347,-73.88
7348,-78.97
7349,-78.48
7350,-70.82
7351,-56.06
7352,-35.97
7353,-13.53
7354,8.08
7355,26.42
7356,40.29
7357,49.57
7358,54.68
7359,56.1
7360,54.15
7361,49.27
7362,42.33
7363,34.75
7364,28.17
7365,23.91
7366,22.39
7367,23.04
7368,24.55
7369,25.57
7370,25.26
7371,23.58
7372,21.08
7373,18.45
7374,15.97
7375,13.34
7376,9.85
7377,4.82
7378,-1.94
7379,-9.93
7380,-18.11
7381,-25.38
7382,-31
7383,-34.91
7384,-37.68
7385,-40.23
7386,-43.44
7387,-47.96
7388,-54.06
7389,-61.55
7390,-69.69
7391,-77.09
7392,-81.78
7393,-81.56
7394,-74.74
7395,-60.79
7396,-40.82
7397,-17.37
7398,6.31
7399,27.22
7400,43.45
7401,54.38
7402,60.46
7403,62.57
7404,61.55
7405,58.08
7406,52.77
7407,46.47
7408,40.32
7409,35.52
7410,32.94
7411,32.7
7412,34.08
7413,35.8
7414,36.59
7415,35.62
7416,32.84
7417,28.84
7418,24.4
7419,20.07
7420,15.87
7421,11.34
7422,5.82
7423,-1.06
7424,-9.09
7425,-17.49
7426,-25.16
7427,-31.22
7428,-35.38
7429,-38.16
7430,-40.64
7431,-44.13
7432,-49.62
7433,-57.43
7434,-66.91
7435,-76.48
7436,-83.86
7437,-86.56
7438,-82.58
7439,-71.12
7440,-52.9
7441,-30.09
7442,-5.71
7443,17.26
7444,36.59
7445,51.14
7446,60.76
7447,65.85
7448,66.96
7449,64.7
7450,59.83
7451,53.41
7452,46.79
7453,41.35
7454,38.06
7455,37.11
7456,37.93
7457,39.37
7458,40.25
7459,39.79
7460,37.8
7461,34.6
7462,30.72
7463,26.57
7464,22.23
7465,17.5
7466,12.04
7467,5.66
7468,-1.58
7469,-9.27
7470,-16.78
7471,-23.48
7472,-28.89
7473,-32.97
7474,-36.07
7475,-38.94
7476,-42.52
7477,-47.66
7478,-54.9
7479,-64.07
7480,-74.12
7481,-83.08
7482,-88.37
7483,-87.47
7484,-78.77
7485,-62.21
7486,-39.54
7487,-13.82
7488,11.42
7489,33.26
7490,50.07
7491,61.52
7492,68.11
7493,70.58
7494,69.5
7495,65.32
7496,58.71
7497,50.84
7498,43.34
7499,37.85
7500,35.37
7501,35.87
7502,38.22
7503,40.76
7504,41.99
7505,41.14
7506,38.37
7507,34.52
7508,30.5
7509,26.83
7510,23.42
7511,19.69
7512,14.96
7513,8.88
7514,1.64
7515,-6.07
7516,-13.34
7517,-19.46
7518,-24.16
7519,-27.68
7520,-30.64
7521,-33.74
7522,-37.61
7523,-42.68
7524,-49.22
7525,-57.22
7526,-66.17
7527,-74.79
7528,-81.02
7529,-82.36
7530,-76.74
7531,-63.36
7532,-43.27
7533,-19.2
7534,5.25
7535,26.75
7536,43.2
7537,53.96
7538,59.54
7539,60.84
7540,58.69
7541,53.67
7542,46.41
7543,37.98
7544,29.88
7545,23.74
7546,20.73
7547,21.01
7548,23.62
7549,26.83
7550,28.85
7551,28.56
7552,25.87
7553,21.6
7554,16.91
7555,12.71
7556,9.15
7557,5.64
7558,1.27
7559,-4.65
7560,-12.1
7561,-20.3
7562,-28.03
7563,-34.22
7564,-38.45
7565,-41.08
7566,-43.07
7567,-45.53
7568,-49.33
7569,-54.89
7570,-62.14
7571,-70.48
7572,-78.76
7573,-85.22
7574,-87.68
7575,-84.08
7576,-73.13
7577,-54.98
7578,-31.43
7579,-5.48
7580,19.45
7581,40.56
7582,56.25
7583,66.2
7584,70.97
7585,71.5
7586,68.68
7587,63.34
7588,56.38
7589,48.97
7590,42.43
7591,37.98
7592,36.29
7593,37.22
7594,39.73
7595,42.32
7596,43.49
7597,42.34
7598,38.81
7599,33.58
7600,27.69
7601,22.04
7602,16.97
7603,12.19
7604,7.06
7605,0.97
7606,-6.26
7607,-14.15
7608,-21.84
7609,-28.39
7610,-33.3
7611,-36.69
7612,-39.27
7613,-42.04
7614,-45.88
7615,-51.36
7616,-58.58
7617,-67.16
7618,-76.11
7619,-83.8
7620,-88.07
7621,-86.64
7622,-77.85
7623,-61.37
7624,-38.61
7625,-12.42
7626,13.66
7627,36.48
7628,54.03
7629,65.63
7630,71.75
7631,73.32
7632,71.43
7633,67.09
7634,61.37
7635,55.37
7636,50.12
7637,46.41
7638,44.48
7639,44.09
7640,44.64
7641,45.46
7642,46.03
7643,46.01
7644,45.17
7645,43.28
7646,40.16
7647,35.7
7648,30.09
7649,23.77
7650,17.34
7651,11.33
7652,5.94
7653,1.07
7654,-3.64
7655,-8.53
7656,-13.72
7657,-19.04
7658,-24.13
7659,-28.64
7660,-32.4
7661,-35.53
7662,-38.32
7663,-41.17
7664,-44.48
7665,-48.72
7666,-54.42
7667,-61.95
7668,-71.09
7669,-80.6
7670,-88.06
7671,-90.35
7672,-84.67
7673,-69.75
7674,-46.58
7675,-18.34
7676,10.67
7677,36.35
7678,56.11
7679,69.17
7680,76.24
7681,78.67
7682,77.69
7683,74.15
7684,68.65
7685,61.99
7686,55.29
7687,49.81
7688,46.57
7689,45.89
7690,47.23
7691,49.46
7692,51.27
7693,51.75
7694,50.62
7695,48.12
7696,44.73
7697,40.79
7698,36.32
7699,31.08
7700,24.83
7701,17.64
7702,9.93
7703,2.39
7704,-4.36
7705,-10.07
7706,-14.96
7707,-19.59
7708,-24.49
7709,-29.86
7710,-35.44
7711,-40.62
7712,-44.8
7713,-47.73
7714,-49.7
7715,-51.5
7716,-54.25
7717,-59.04
7718,-66.51
7719,-76.45
7720,-87.46
7721,-97.03
7722,-102.02
7723,-99.61
7724,-88.31
7725,-68.68
7726,-43.24
7727,-15.71
7728,10.15
7729,31.59
7730,47.31
7731,57.26
7732,62.06
7733,62.51
7734,59.42
7735,53.71
7736,46.55
7737,39.41
7738,33.65
7739,30.13
7740,28.98
7741,29.63
7742,31.15
7743,32.66
7744,33.6
7745,33.79
7746,33.17
7747,31.67
7748,29.11
7749,25.31
7750,20.3
7751,14.41
7752,8.24
7753,2.39
7754,-2.85
7755,-7.61
7756,-12.31
7757,-17.34
7758,-22.79
7759,-28.34
7760,-33.43
7761,-37.6
7762,-40.72
7763,-43.14
7764,-45.47
7765,-48.34
7766,-52.27
7767,-57.61
7768,-64.55
7769,-72.88
7770,-81.71
7771,-89.21
7772,-92.76
7773,-89.69
7774,-78.3
7775,-58.76
7776,-33.34
7777,-5.78
7778,19.94
7779,40.78
7780,55.33
7781,63.75
7782,67.14
7783,66.75
7784,63.61
7785,58.47
7786,52.04
7787,45.27
7788,39.28
7789,35.12
7790,33.47
7791,34.3
7792,36.86
7793,39.88
7794,42.02
7795,42.25
7796,40.15
7797,35.95
7798,30.38
7799,24.36
7800,18.62
7801,13.51
7802,8.87
7803,4.16
7804,-1.19
7805,-7.48
7806,-14.51
7807,-21.63
7808,-28.01
7809,-33.05
7810,-36.69
7811,-39.38
7812,-41.89
7813,-44.93
7814,-49
7815,-54.35
7816,-61.09
7817,-69.17
7818,-78.12
7819,-86.61
7820,-92.38
7821,-92.65
7822,-85.02
7823,-68.63
7824,-44.78
7825,-16.73
7826,11.27
7827,35.44
7828,53.49
7829,64.98
7830,70.87
7831,72.62
7832,71.5
7833,68.25
7834,63.31
7835,57.22
7836,50.81
7837,45.15
7838,41.27
7839,39.72
7840,40.35
7841,42.35
7842,44.56
7843,45.87
7844,45.54
7845,43.42
7846,39.82
7847,35.28
7848,30.3
7849,25.18
7850,19.97
7851,14.6
7852,8.99
7853,3.16
7854,-2.77
7855,-8.62
7856,-14.28
7857,-19.71
7858,-24.96
7859,-30.06
7860,-34.99
7861,-39.66
7862,-43.99
7863,-48
7864,-52.02
7865,-56.74
7866,-63.03
7867,-71.5
7868,-81.84
7869,-92.31
7870,-99.92
7871,-101.19
7872,-93.53
7873,-76.4
7874,-51.76
7875,-23.5
7876,3.94
7877,27.02
7878,44.03
7879,55.05
7880,61.18
7881,63.65
7882,63.27
7883,60.42
7884,55.48
7885,49.24
7886,42.93
7887,37.92
7888,35.17
7889,34.92
7890,36.55
7891,38.94
7892,40.86
7893,41.5
7894,40.56
7895,38.24
7896,34.98
7897,31.11
7898,26.81
7899,22.07
7900,16.87
7901,11.24
7902,5.35
7903,-0.63
7904,-6.59
7905,-12.53
7906,-18.47
7907,-24.38
7908,-30.09
7909,-35.32
7910,-39.8
7911,-43.51
7912,-46.72
7913,-50.05
7914,-54.37
7915,-60.52
7916,-69.02
7917,-79.55
7918,-90.64
7919,-99.73
7920,-103.68
7921,-99.83
7922,-87.01
7923,-66.2
7924,-40.34
7925,-13.34
7926,11.15
7927,30.73
7928,44.56
7929,52.99
7930,56.76
7931,56.56
7932,52.92
7933,46.5
7934,38.48
7935,30.54
7936,24.45
7937,21.48
7938,21.92
7939,24.97
7940,29.08
7941,32.59
7942,34.29
7943,33.79
7944,31.44
7945,27.97
7946,24.11
7947,20.22
7948,16.24
7949,11.79
7950,6.53
7951,0.31
7952,-6.64
7953,-13.77
7954,-20.46
7955,-26.22
7956,-30.87
7957,-34.58
7958,-37.8
7959,-41.17
7960,-45.37
7961,-51.08
7962,-58.77
7963,-68.41
7964,-79.13
7965,-88.99
7966,-95.27
7967,-95.13
7968,-86.7
7969,-69.85
7970,-46.48
7971,-19.94
7972,6.02
7973,28.42
7974,45.68
7975,57.61
7976,64.83
7977,68.06
7978,67.78
7979,64.37
7980,58.4
7981,51.01
7982,43.81
7983,38.45
7984,36.02
7985,36.57
7986,39.14
7987,42.1
7988,43.87
7989,43.51
7990,40.99
7991,36.99
7992,32.43
7993,27.98
7994,23.77
7995,19.41
7996,14.37
7997,8.23
7998,0.97
7999,-6.98
8000,-14.97
8001,-22.36
8002,-28.73
8003,-34.01
8004,-38.42
8005,-42.39
8006,-46.41
8007,-50.98
8008,-56.7
8009,-64.07
8010,-73.28
8011,-83.68
8012,-93.46
8013,-99.74
8014,-99.29
8015,-89.78
8016,-70.82
8017,-44.47
8018,-14.63
8019,14.22
8020,38.52
8021,56.51
8022,68.27
8023,74.92
8024,77.75
8025,77.59
8026,74.81
8027,69.81
8028,63.41
8029,56.92
8030,51.8
8031,49.1
8032,48.97
8033,50.61
8034,52.68
8035,53.84
8036,53.31
8037,51
8038,47.38
8039,43.1
8040,38.6
8041,33.96
8042,29
8043,23.5
8044,17.34
8045,10.64
8046,3.62
8047,-3.46
8048,-10.39
8049,-17.03
8050,-23.27
8051,-29
8052,-34.11
8053,-38.58
8054,-42.53
8055,-46.29
8056,-50.49
8057,-55.9
8058,-63.3
8059,-72.95
8060,-84.11
8061,-94.67
8062,-101.49
8063,-101.18
8064,-91.45
8065,-72.13
8066,-45.48
8067,-15.54
8068,13.25
8069,37.46
8070,55.49
8071,67.42
8072,74.3
8073,77.22
8074,76.88
8075,73.65
8076,68.07
8077,61.14
8078,54.28
8079,48.95
8080,46.04
8081,45.61
8082,46.87
8083,48.61
8084,49.67
8085,49.35
8086,47.49
8087,44.32
8088,40.21
8089,35.48
8090,30.32
8091,24.85
8092,19.15
8093,13.28
8094,7.2
8095,0.8
8096,-6.06
8097,-13.41
8098,-21.01
8099,-28.39
8100,-34.94
8101,-40.21
8102,-44.1
8103,-47.04
8104,-49.86
8105,-53.63
8106,-59.3
8107,-67.41
8108,-77.73
8109,-88.98
8110,-98.84
8111,-104.33
8112,-102.63
8113,-92.07
8114,-72.87
8115,-47.22
8116,-18.67
8117,8.93
8118,32.5
8119,50.3
8120,61.85
8121,67.47
8122,67.82
8123,63.74
8124,56.35
8125,47.21
8126,38.18
8127,31.03
8128,26.9
8129,25.86
8130,27.03
8131,29
8132,30.41
8133,30.49
8134,29.2
8135,27.04
8136,24.61
8137,22.18
8138,19.51
8139,16.02
8140,11.08
8141,4.44
8142,-3.62
8143,-12.33
8144,-20.71
8145,-27.96
8146,-33.72
8147,-38.17
8148,-41.92
8149,-45.82
8150,-50.76
8151,-57.41
8152,-66
8153,-75.93
8154,-85.53
8155,-92.21
8156,-93.05
8157,-85.83
8158,-69.97
8159,-47.01
8160,-20.21
8161,6.48
8162,29.76
8163,47.79
8164,60.3
8165,67.98
8166,71.68
8167,71.88
8168,68.79
8169,62.82
8170,55.01
8171,47.08
8172,40.92
8173,37.79
8174,37.78
8175,39.7
8176,41.72
8177,42.19
8178,40.38
8179,36.66
8180,32.09
8181,27.7
8182,23.84
8183,19.99
8184,15.15
8185,8.42
8186,-0.34
8187,-10.36
8188,-20.27
8189,-28.71
8190,-34.95
8191,-39.17
8192,-42.37
8193,-45.89
8194,-50.9
8195,-58.15
8196,-67.72
8197,-78.92
8198,-90.22
8199,-99.26
8200,-103.21
8201,-99.46
8202,-86.59
8203,-65.09
8204,-37.49
8205,-7.65
8206,20.38
8207,43.62
8208,60.71
8209,71.76
8210,77.73
8211,79.65
8212,78.31
8213,74.3
8214,68.36
8215,61.61
8216,55.41
8217,51.04
8218,49.22
8219,49.83
8220,51.88
8221,53.95
8222,54.68
8223,53.19
8224,49.38
8225,43.82
8226,37.45
8227,31.15
8228,25.42
8229,20.19
8230,14.91
8231,8.92
8232,1.73
8233,-6.6
8234,-15.45
8235,-23.86
8236,-30.96
8237,-36.32
8238,-40.22
8239,-43.53
8240,-47.31
8241,-52.49
8242,-59.59
8243,-68.64
8244,-79.16
8245,-90.01
8246,-99.36
8247,-104.76
8248,-103.62
8249,-94.06
8250,-75.69
8251,-50.12
8252,-20.61
8253,8.8
8254,34.54
8255,54.43
8256,67.94
8257,75.75
8258,79.06
8259,79
8260,76.4
8261,71.99
8262,66.56
8263,61.08
8264,56.48
8265,53.36
8266,51.82
8267,51.43
8268,51.47
8269,51.26
8270,50.32
8271,48.42
8272,45.53
8273,41.71
8274,37.02
8275,31.6
8276,25.66
8277,19.51
8278,13.46
8279,7.7
8280,2.21
8281,-3.16
8282,-8.66
8283,-14.4
8284,-20.27
8285,-25.95
8286,-31.05
8287,-35.27
8288,-38.63
8289,-41.5
8290,-44.48
8291,-48.31
8292,-53.68
8293,-61.14
8294,-70.88
8295,-82.38
8296,-94.09
8297,-103.34
8298,-106.83
8299,-101.63
8300,-86.39
8301,-62.1
8302,-32.09
8303,-0.93
8304,26.98
8305,48.78
8306,63.63
8307,72.33
8308,76.32
8309,76.88
8310,74.72
8311,70.25
8312,64.06
8313,57.2
8314,51.08
8315,46.93
8316,45.33
8317,45.96
8318,47.73
8319,49.32
8320,49.69
8321,48.44
8322,45.71
8323,41.95
8324,37.58
8325,32.78
8326,27.52
8327,21.72
8328,15.41
8329,8.82
8330,2.27
8331,-3.92
8332,-9.61
8333,-14.87
8334,-19.9
8335,-24.91
8336,-29.98
8337,-34.96
8338,-39.61
8339,-43.72
8340,-47.28
8341,-50.63
8342,-54.52
8343,-59.88
8344,-67.43
8345,-77.12
8346,-87.62
8347,-96.35
8348,-100.04
8349,-95.87
8350,-82.61
8351,-61.27
8352,-34.89
8353,-7.49
8354,17.3
8355,37.23
8356,51.62
8357,60.93
8358,65.87
8359,66.88
8360,64.19
8361,58.19
8362,49.98
8363,41.32
8364,34.28
8365,30.41
8366,30.13
8367,32.62
8368,36.16
8369,38.87
8370,39.51
8371,37.85
8372,34.51
8373,30.52
8374,26.68
8375,23.13
8376,19.4
8377,14.72
8378,8.54
8379,0.89
8380,-7.54
8381,-15.74
8382,-22.82
8383,-28.39
8384,-32.7
8385,-36.38
8386,-40.18
8387,-44.64
8388,-50.12
8389,-56.82
8390,-64.83
8391,-73.87
8392,-82.96
8393,-90.23
8394,-93.14
8395,-89.26
8396,-77.32
8397,-57.9
8398,-33.46
8399,-7.62
8400,16.07
8401,35.21
8402,48.96
8403,57.71
8404,62.37
8405,63.67
8406,61.96
8407,57.48
8408,50.91
8409,43.55
8410,37.09
8411,33.04
8412,31.98
8413,33.36
8414,35.68
8415,37.18
8416,36.65
8417,33.88
8418,29.62
8419,25
8420,20.93
8421,17.55
8422,14.21
8423,9.87
8424,3.77
8425,-4.11
8426,-12.95
8427,-21.42
8428,-28.33
8429,-33.16
8430,-36.3
8431,-38.81
8432,-41.98
8433,-46.77
8434,-53.59
8435,-62.19
8436,-71.74
8437,-80.83
8438,-87.55
8439,-89.73
8440,-85.46
8441,-73.74
8442,-55.04
8443,-31.38
8444,-5.91
8445,18.08
8446,37.99
8447,52.53
8448,61.64
8449,66.04
8450,66.75
8451,64.67
8452,60.61
8453,55.38
8454,49.93
8455,45.23
8456,42.05
8457,40.68
8458,40.86
8459,41.75
8460,42.35
8461,41.84
8462,39.86
8463,36.54
8464,32.34
8465,27.76
8466,23.04
8467,18.07
8468,12.51
8469,6.03
8470,-1.4
8471,-9.4
8472,-17.21
8473,-24.03
8474,-29.35
8475,-33.18
8476,-36.13
8477,-39.18
8478,-43.44
8479,-49.71
8480,-58.13
8481,-67.93
8482,-77.34
8483,-83.92
8484,-85.14
8485,-79.22
8486,-65.8
8487,-46.19
8488,-23.05
8489,0.45
8490,21.6
8491,38.69
8492,51.11
8493,59.03
8494,62.85
8495,62.99
8496,59.91
8497,54.38
8498,47.62
8499,41.15
8500,36.3
8501,33.74
8502,33.26
8503,33.9
8504,34.43
8505,33.92
8506,32.1
8507,29.31
8508,26.19
8509,23.2
8510,20.38
8511,17.24
8512,13.13
8513,7.57
8514,0.56
8515,-7.36
8516,-15.31
8517,-22.44
8518,-28.22
8519,-32.63
8520,-36.09
8521,-39.26
8522,-42.87
8523,-47.54
8524,-53.68
8525,-61.39
8526,-70.19
8527,-78.86
8528,-85.38
8529,-87.32
8530,-82.6
8531,-70.34
8532,-51.37
8533,-28.19
8534,-4.19
8535,17.43
8536,34.57
8537,46.51
8538,53.63
8539,56.75
8540,56.54
8541,53.49
8542,48.07
8543,41.18
8544,34.15
8545,28.45
8546,25.12
8547,24.32
8548,25.28
8549,26.63
8550,27.1
8551,26.04
8552,23.57
8553,20.32
8554,16.91
8555,13.55
8556,9.91
8557,5.42
8558,-0.31
8559,-7.17
8560,-14.5
8561,-21.4
8562,-27.11
8563,-31.41
8564,-34.64
8565,-37.65
8566,-41.38
8567,-46.65
8568,-53.8
8569,-62.51
8570,-71.69
8571,-79.5
8572,-83.64
8573,-82.02
8574,-73.43
8575,-58.05
8576,-37.56
8577,-14.63
8578,7.83
8579,27.49
8580,42.98
8581,53.83
8582,60.19
8583,62.41
8584,61
8585,56.73
8586,50.64
8587,44.1
8588,38.4
8589,34.43
8590,32.38
8591,31.75
8592,31.68
8593,31.34
8594,30.25
8595,28.39
8596,25.97
8597,23.18
8598,19.95
8599,15.96
8600,10.8
8601,4.34
8602,-3.12
8603,-10.88
8604,-18.14
8605,-24.27
8606,-29.17
8607,-33.19
8608,-37.01
8609,-41.36
8610,-46.85
8611,-53.85
8612,-62.3
8613,-71.51
8614,-79.92
8615,-85.27
8616,-85.07
8617,-77.48
8618,-62.15
8619,-40.59
8620,-15.84
8621,8.5
8622,29.48
8623,45.55
8624,56.57
8625,63.29
8626,66.56
8627,66.88
8628,64.46
8629,59.61
8630,53.17
8631,46.53
8632,41.22
8633,38.33
8634,37.98
8635,39.26
8636,40.63
8637,40.7
8638,38.76
8639,35.02
8640,30.34
8641,25.64
8642,21.38
8643,17.31
8644,12.67
8645,6.73
8646,-0.76
8647,-9.31
8648,-17.9
8649,-25.38
8650,-31.07
8651,-34.96
8652,-37.77
8653,-40.62
8654,-44.63
8655,-50.58
8656,-58.7
8657,-68.49
8658,-78.63
8659,-87.11
8660,-91.51
8661,-89.6
8662,-80.09
8663,-63.19
8664,-40.66
8665,-15.45
8666,9.23
8667,30.74
8668,47.52
8669,59.2
8670,66.13
8671,68.98
8672,68.43
8673,65.15
8674,59.99
8675,54.01
8676,48.42
8677,44.25
8678,42.06
8679,41.77
8680,42.69
8681,43.83
8682,44.19
8683,43.14
8684,40.49
8685,36.5
8686,31.7
8687,26.63
8688,21.69
8689,16.96
8690,12.22
8691,7.04
8692,1.07
8693,-5.78
8694,-13.2
8695,-20.51
8696,-26.94
8697,-31.96
8698,-35.53
8699,-38.18
8700,-40.78
8701,-44.36
8702,-49.73
8703,-57.26
8704,-66.61
8705,-76.62
8706,-85.3
8707,-90.13
8708,-88.76
8709,-79.73
8710,-63.16
8711,-40.83
8712,-15.73
8713,8.87
8714,30.3
8715,47.06
8716,58.78
8717,65.83
8718,68.84
8719,68.45
8720,65.28
8721,60.19
8722,54.25
8723,48.64
8724,44.36
8725,41.91
8726,41.2
8727,41.61
8728,42.28
8729,42.4
8730,41.47
8731,39.33
8732,36.09
8733,32.01
8734,27.4
8735,22.52
8736,17.56
8737,12.57
8738,7.47
8739,2.07
8740,-3.81
8741,-10.17
8742,-16.76
8743,-23.08
8744,-28.61
8745,-33.03
8746,-36.44
8747,-39.37
8748,-42.57
8749,-46.9
8750,-52.95
8751,-60.83
8752,-69.95
8753,-78.86
8754,-85.46
8755,-87.41
8756,-82.84
8757,-71.05
8758,-52.85
8759,-30.45
8760,-6.74
8761,15.47
8762,34.17
8763,48.25
8764,57.4
8765,61.67
8766,61.38
8767,57.14
8768,50.04
8769,41.7
8770,33.98
8771,28.47
8772,25.92
8773,26.08
8774,27.79
8775,29.59
8776,30.27
8777,29.33
8778,26.98
8779,23.85
8780,20.56
8781,17.32
8782,13.94
8783,9.94
8784,4.93
8785,-1.15
8786,-7.96
8787,-14.88
8788,-21.29
8789,-26.76
8790,-31.25
8791,-34.97
8792,-38.37
8793,-41.93
8794,-46.18
8795,-51.59
8796,-58.4
8797,-66.39
8798,-74.54
8799,-80.94
8800,-83.18
8801,-79.02
8802,-67.39
8803,-48.89
8804,-25.84
8805,-1.51
8806,20.86
8807,39.06
8808,52.18
8809,60.42
8810,64.45
8811,64.86
8812,62.11
8813,56.67
8814,49.43
8815,41.78
8816,35.28
8817,31.17
8818,29.83
8819,30.61
8820,32.17
8821,33.08
8822,32.45
8823,30.17
8824,26.81
8825,23.08
8826,19.38
8827,15.54
8828,10.97
8829,5.09
8830,-2.22
8831,-10.46
8832,-18.62
8833,-25.69
8834,-31.07
8835,-34.88
8836,-37.88
8837,-41.1
8838,-45.54
8839,-51.77
8840,-59.84
8841,-69.08
8842,-78.16
8843,-85.1
8844,-87.59
8845,-83.62
8846,-72.15
8847,-53.66
8848,-30.21
8849,-4.86
8850,19.15
8851,39.31
8852,54.32
8853,63.99
8854,68.88
8855,69.75
8856,67.4
8857,62.62
8858,56.32
8859,49.63
8860,43.76
8861,39.71
8862,37.92
8863,38.16
8864,39.54
8865,40.85
8866,41
8867,39.42
8868,36.16
8869,31.8
8870,27.1
8871,22.55
8872,18.17
8873,13.52
8874,7.98
8875,1.18
8876,-6.77
8877,-15.17
8878,-23.06
8879,-29.58
8880,-34.34
8881,-37.62
8882,-40.24
8883,-43.31
8884,-47.9
8885,-54.65
8886,-63.5
8887,-73.44
8888,-82.5
8889,-88.07
8890,-87.57
8891,-79.34
8892,-63.31
8893,-41.15
8894,-15.9
8895,9.07
8896,30.95
8897,48.14
8898,60.23
8899,67.56
8900,70.67
8901,70.11
8902,66.45
8903,60.51
8904,53.55
8905,47
8906,42.18
8907,39.79
8908,39.72
8909,41.13
8910,42.82
8911,43.69
8912,43.07
8913,40.85
8914,37.31
8915,32.98
8916,28.29
8917,23.52
8918,18.69
8919,13.66
8920,8.23
8921,2.22
8922,-4.39
8923,-11.41
8924,-18.46
8925,-25.08
8926,-30.8
8927,-35.35
8928,-38.81
8929,-41.6
8930,-44.47
8931,-48.31
8932,-53.96
8933,-61.75
8934,-71.2
8935,-80.72
8936,-87.81
8937,-89.7
8938,-84.22
8939,-70.72
8940,-50.35
8941,-25.85
8942,-0.61
8943,22.33
8944,40.96
8945,54.51
8946,63.02
8947,66.9
8948,66.6
8949,62.65
8950,55.94
8951,47.84
8952,40.08
8953,34.27
8954,31.34
8955,31.29
8956,33.24
8957,35.78
8958,37.59
8959,37.84
8960,36.32
8961,33.39
8962,29.6
8963,25.48
8964,21.28
8965,16.98
8966,12.32
8967,7.05
8968,1.03
8969,-5.68
8970,-12.69
8971,-19.47
8972,-25.46
8973,-30.26
8974,-33.82
8975,-36.44
8976,-38.72
8977,-41.37
8978,-45.14
8979,-50.66
8980,-58.16
8981,-67.21
8982,-76.38
8983,-83.38
8984,-85.47
8985,-80.41
8986,-67.32
8987,-47.22
8988,-22.84
8989,2.27
8990,24.91
8991,43
8992,55.86
8993,63.72
8994,67.17
8995,66.69
8996,62.73
8997,56.01
8998,47.85
8999,40.04
9000,34.39
9001,32.01
9002,32.87
9003,35.81
9004,39.03
9005,40.94
9006,40.71
9007,38.51
9008,35.13
9009,31.48
9010,28.01
9011,24.5
9012,20.25
9013,14.52
9014,7.02
9015,-1.89
9016,-11.26
9017,-20
9018,-27.31
9019,-32.95
9020,-37.3
9021,-41.11
9022,-45.18
9023,-50.13
9024,-56.37
9025,-64.08
9026,-73.06
9027,-82.48
9028,-90.65
9029,-95.11
9030,-93.26
9031,-83.33
9032,-65.26
9033,-41.04
9034,-14.2
9035,11.37
9036,32.6
9037,48.02
9038,57.66
9039,62.47
9040,63.5
9041,61.5
9042,56.93
9043,50.39
9044,42.91
9045,35.94
9046,30.98
9047,29.03
9048,30.09
9049,33.17
9050,36.6
9051,38.71
9052,38.49
9053,35.82
9054,31.4
9055,26.32
9056,21.45
9057,17.13
9058,13.05
9059,8.51
9060,2.84
9061,-4.16
9062,-12.12
9063,-20.12
9064,-27.15
9065,-32.51
9066,-36.13
9067,-38.61
9068,-40.94
9069,-44.1
9070,-48.79
9071,-55.27
9072,-63.38
9073,-72.48
9074,-81.37
9075,-88.2
9076,-90.65
9077,-86.46
9078,-74.32
9079,-54.49
9080,-29.09
9081,-1.56
9082,24.34
9083,45.65
9084,60.85
9085,69.95
9086,73.92
9087,74.02
9088,71.3
9089,66.5
9090,60.26
9091,53.33
9092,46.74
9093,41.59
9094,38.76
9095,38.53
9096,40.42
9097,43.29
9098,45.74
9099,46.61
9100,45.31
9101,41.96
9102,37.16
9103,31.69
9104,26.12
9105,20.64
9106,15.1
9107,9.17
9108,2.66
9109,-4.37
9110,-11.58
9111,-18.46
9112,-24.59
9113,-29.74
9114,-33.96
9115,-37.49
9116,-40.65
9117,-43.73
9118,-47.06
9119,-50.99
9120,-56.02
9121,-62.63
9122,-70.84
9123,-79.77
9124,-87.4
9125,-90.84
9126,-87.25
9127,-74.98
9128,-54.43
9129,-28.16
9130,-0.11
9131,25.67
9132,46.3
9133,60.62
9134,68.99
9135,72.52
9136,72.25
9137,68.81
9138,62.62
9139,54.29
9140,45.04
9141,36.53
9142,30.42
9143,27.68
9144,28.17
9145,30.66
9146,33.36
9147,34.68
9148,33.82
9149,30.99
9150,27.13
9151,23.28
9152,20.06
9153,17.3
9154,14.22
9155,9.79
9156,3.36
9157,-4.96
9158,-14.31
9159,-23.41
9160,-31.1
9161,-36.83
9162,-40.8
9163,-43.81
9164,-46.74
9165,-50.27
9166,-54.72
9167,-60.19
9168,-66.67
9169,-73.95
9170,-81.22
9171,-86.87
9172,-88.61
9173,-84.12
9174,-72.05
9175,-52.86
9176,-28.88
9177,-3.68
9178,19.16
9179,37.07
9180,49.01
9181,55.26
9182,56.72
9183,54.38
9184,49.04
9185,41.48
9186,32.7
9187,24.08
9188,17.05
9189,12.71
9190,11.4
9191,12.55
9192,14.93
9193,17.17
9194,18.24
9195,17.76
9196,15.96
9197,13.38
9198,10.38
9199,7.01
9200,2.91
9201,-2.4
9202,-9.14
9203,-17.03
9204,-25.29
9205,-32.87
9206,-38.89
9207,-43.05
9208,-45.8
9209,-48.24
9210,-51.75
9211,-57.45
9212,-65.73
9213,-75.9
9214,-86.14
9215,-93.83
9216,-96.19
9217,-91.12
9218,-77.91
9219,-57.58
9220,-32.63
9221,-6.39
9222,17.96
9223,38.1
9224,52.85
9225,62
9226,65.9
9227,65.2
9228,60.75
9229,53.72
9230,45.6
9231,38.02
9232,32.31
9233,29.14
9234,28.28
9235,28.89
9236,29.84
9237,30.3
9238,29.93
9239,28.82
9240,27.19
9241,25.08
9242,22.15
9243,17.85
9244,11.76
9245,3.92
9246,-5.07
9247,-14.18
9248,-22.43
9249,-29.23
9250,-34.63
9251,-39.19
9252,-43.77
9253,-49.17
9254,-56
9255,-64.48
9256,-74.28
9257,-84.35
9258,-92.77
9259,-97.01
9260,-94.49
9261,-83.58
9262,-64.37
9263,-38.96
9264,-10.9
9265,15.84
9266,38.14
9267,54.38
9268,64.52
9269,69.43
9270,70.24
9271,67.83
9272,62.9
9273,56.19
9274,48.81
9275,42.11
9276,37.38
9277,35.31
9278,35.76
9279,37.73
9280,39.9
9281,41.1
9282,40.73
9283,38.91
9284,36.1
9285,32.81
9286,29.16
9287,24.83
9288,19.29
9289,12.17
9290,3.58
9291,-5.76
9292,-14.77
9293,-22.4
9294,-28.11
9295,-32.15
9296,-35.49
9297,-39.48
9298,-45.42
9299,-54
9300,-64.95
9301,-76.8
9302,-87.06
9303,-92.72
9304,-91.14
9305,-80.95
9306,-62.62
9307,-38.45
9308,-11.82
9309,13.78
9310,35.73
9311,52.67
9312,64.29
9313,70.88
9314,72.81
9315,70.5
9316,64.66
9317,56.5
9318,47.78
9319,40.38
9320,35.64
9321,33.98
9322,34.72
9323,36.56
9324,38.13
9325,38.58
9326,37.79
9327,36.12
9328,34.04
9329,31.65
9330,28.62
9331,24.33
9332,18.29
9333,10.5
9334,1.5
9335,-7.69
9336,-16.05
9337,-22.9
9338,-28.11
9339,-32.14
9340,-35.74
9341,-39.8
9342,-45.03
9343,-51.93
9344,-60.55
9345,-70.27
9346,-79.61
9347,-86.3
9348,-87.65
9349,-81.47
9350,-66.88
9351,-44.95
9352,-18.56
9353,8.42
9354,32.31
9355,50.6
9356,62.4
9357,68.11
9358,68.84
9359,65.68
9360,59.58
9361,51.38
9362,42.13
9363,33.18
9364,25.92
9365,21.39
9366,19.84
9367,20.65
9368,22.57
9369,24.24
9370,24.67
9371,23.46
9372,20.71
9373,16.74
9374,11.8
9375,5.99
9376,-0.67
9377,-8.06
9378,-15.83
9379,-23.45
9380,-30.39
9381,-36.34
9382,-41.35
9383,-45.96
9384,-51.03
9385,-57.46
9386,-65.67
9387,-75.17
9388,-84.22
9389,-90.12
9390,-89.96
9391,-81.64
9392,-64.88
9393,-41.43
9394,-14.7
9395,11.46
9396,33.87
9397,50.74
9398,61.75
9399,67.46
9400,68.71
9401,66.26
9402,60.78
9403,53.13
9404,44.57
9405,36.55
9406,30.4
9407,26.84
9408,25.82
9409,26.59
9410,28.05
9411,29.15
9412,29.17
9413,27.77
9414,24.83
9415,20.41
9416,14.61
9417,7.62
9418,-0.17
9419,-8.25
9420,-16.01
9421,-22.97
9422,-29.02
9423,-34.49
9424,-40.14
9425,-46.97
9426,-55.77
9427,-66.58
9428,-78.27
9429,-88.44
9430,-93.94
9431,-91.79
9432,-80.32
9433,-59.95
9434,-33.22
9435,-3.99
9436,23.8
9437,47.22
9438,64.89
9439,76.72
9440,83.27
9441,85.18
9442,82.94
9443,77.21
9444,69.12
9445,60.35
9446,52.82
9447,47.98
9448,46.29
9449,47.03
9450,48.68
9451,49.59
9452,48.71
9453,45.87
9454,41.67
9455,36.98
9456,32.36
9457,27.75
9458,22.57
9459,16.07
9460,7.8
9461,-2
9462,-12.53
9463,-22.63
9464,-31.34
9465,-38.22
9466,-43.49
9467,-47.9
9468,-52.44
9469,-58.06
9470,-65.52
9471,-75.09
9472,-86.35
9473,-97.84
9474,-107.03
9475,-110.69
9476,-105.88
9477,-91.07
9478,-67.01
9479,-36.74
9480,-4.73
9481,24.57
9482,48.13
9483,64.9
9484,75.49
9485,81.23
9486,83.26
9487,82.12
9488,78.08
9489,71.66
9490,64.1
9491,57.19
9492,52.67
9493,51.47
9494,53.24
9495,56.42
9496,58.96
9497,59.2
9498,56.46
9499,51.27
9500,44.87
9501,38.56
9502,33.01
9503,28.08
9504,22.96
9505,16.74
9506,8.94
9507,-0.16
9508,-9.65
9509,-18.37
9510,-25.43
9511,-30.59
9512,-34.29
9513,-37.43
9514,-40.91
9515,-45.44
9516,-51.43
9517,-59.06
9518,-68.35
9519,-78.89
9520,-89.48
9521,-97.96
9522,-101.46
9523,-97.17
9524,-83.51
9525,-61
9526,-32.37
9527,-1.84
9528,26.32
9529,48.98
9530,64.91
9531,74.48
9532,79.01
9533,79.82
9534,77.89
9535,73.84
9536,68.29
9537,62.14
9538,56.55
9539,52.62
9540,50.92
9541,51.31
9542,52.88
9543,54.42
9544,54.88
9545,53.68
9546,50.85
9547,46.81
9548,42.05
9549,36.87
9550,31.31
9551,25.3
9552,18.83
9553,12.08
9554,5.35
9555,-1.02
9556,-6.94
9557,-12.53
9558,-18.07
9559,-23.77
9560,-29.63
9561,-35.36
9562,-40.58
9563,-44.98
9564,-48.59
9565,-51.82
9566,-55.46
9567,-60.52
9568,-67.88
9569,-77.85
9570,-89.59
9571,-100.9
9572,-108.42
9573,-108.59
9574,-98.95
9575,-79.23
9576,-51.68
9577,-20.46
9578,9.82
9579,35.52
9580,54.81
9581,67.6
9582,74.85
9583,77.62
9584,76.69
9585,72.59
9586,66.06
9587,58.32
9588,50.98
9589,45.56
9590,42.97
9591,43.1
9592,44.99
9593,47.24
9594,48.59
9595,48.34
9596,46.43
9597,43.21
9598,39.11
9599,34.38
9600,29.07
9601,23.19
9602,16.85
9603,10.33
9604,3.94
9605,-2.15
9606,-8.03
9607,-13.89
9608,-19.9
9609,-25.94
9610,-31.66
9611,-36.61
9612,-40.53
9613,-43.53
9614,-46.16
9615,-49.23
9616,-53.63
9617,-60.03
9618,-68.59
9619,-78.7
9620,-88.74
9621,-96.23
9622,-98.29
9623,-92.59
9624,-78.23
9625,-56.27
9626,-29.57
9627,-1.93
9628,23.11
9629,43.15
9630,57.27
9631,65.68
9632,69.12
9633,68.38
9634,64.2
9635,57.5
9636,49.55
9637,41.92
9638,36.14
9639,33.15
9640,32.98
9641,34.82
9642,37.31
9643,39.13
9644,39.37
9645,37.78
9646,34.64
9647,30.5
9648,25.89
9649,21.15
9650,16.34
9651,11.28
9652,5.7
9653,-0.64
9654,-7.74
9655,-15.33
9656,-22.83
9657,-29.58
9658,-35.08
9659,-39.16
9660,-42.14
9661,-44.75
9662,-47.93
9663,-52.59
9664,-59.33
9665,-68.22
9666,-78.59
9667,-88.84
9668,-96.63
9669,-99.3
9670,-94.62
9671,-81.66
9672,-61.23
9673,-35.82
9674,-8.88
9675,16.26
9676,37.18
9677,52.79
9678,63.07
9679,68.59
9680,69.97
9681,67.81
9682,62.81
9683,56.05
9684,48.95
9685,43.04
9686,39.44
9687,38.49
9688,39.72
9689,41.97
9690,43.93
9691,44.55
9692,43.32
9693,40.32
9694,35.99
9695,30.91
9696,25.54
9697,20.11
9698,14.6
9699,8.8
9700,2.46
9701,-4.53
9702,-12.07
9703,-19.81
9704,-27.21
9705,-33.72
9706,-39.02
9707,-43.13
9708,-46.42
9709,-49.54
9710,-53.26
9711,-58.33
9712,-65.28
9713,-74.18
9714,-84.31
9715,-93.97
9716,-100.59
9717,-101.39
9718,-94.27
9719,-78.73
9720,-56.2
9721,-29.7
9722,-2.87
9723,21.15
9724,40.44
9725,54.38
9726,63.27
9727,67.72
9728,68.31
9729,65.63
9730,60.5
9731,54.12
9732,47.89
9733,43.1
9734,40.49
9735,40.04
9736,41.12
9737,42.81
9738,44.18
9739,44.61
9740,43.79
9741,41.61
9742,38.15
9743,33.54
9744,28.05
9745,22.03
9746,15.85
9747,9.74
9748,3.75
9749,-2.34
9750,-8.76
9751,-15.66
9752,-22.8
9753,-29.63
9754,-35.49
9755,-39.88
9756,-42.77
9757,-44.73
9758,-46.7
9759,-49.75
9760,-54.72
9761,-62
9762,-71.3
9763,-81.57
9764,-90.92
9765,-96.82
9766,-96.67
9767,-88.5
9768,-71.84
9769,-48.12
9770,-20.38
9771,7.52
9772,32.12
9773,51.15
9774,63.88
9775,70.8
9776,72.97
9777,71.48
9778,67.31
9779,61.42
9780,54.84
9781,48.72
9782,44.08
9783,41.49
9784,40.95
9785,41.9
9786,43.44
9787,44.67
9788,44.87
9789,43.63
9790,40.79
9791,36.42
9792,30.8
9793,24.41
9794,17.81
9795,11.46
9796,5.58
9797,0.05
9798,-5.45
9799,-11.26
9800,-17.46
9801,-23.78
9802,-29.73
9803,-34.84
9804,-38.89
9805,-42.07
9806,-44.91
9807,-48.13
9808,-52.37
9809,-58.17
9810,-65.8
9811,-75.21
9812,-85.7
9813,-95.71
9814,-102.82
9815,-104.21
9816,-97.54
9817,-81.97
9818,-58.74
9819,-30.98
9820,-2.83
9821,21.95
9822,40.94
9823,53.5
9824,60.31
9825,62.63
9826,61.62
9827,58.04
9828,52.55
9829,45.93
9830,39.34
9831,34.05
9832,31.11
9833,30.9
9834,32.97
9835,36.14
9836,38.93
9837,40.11
9838,39.01
9839,35.66
9840,30.68
9841,24.95
9842,19.23
9843,13.9
9844,8.88
9845,3.72
9846,-2.1
9847,-8.88
9848,-16.49
9849,-24.33
9850,-31.53
9851,-37.34
9852,-41.49
9853,-44.29
9854,-46.54
9855,-49.16
9856,-52.89
9857,-58.16
9858,-65.13
9859,-73.71
9860,-83.41
9861,-93.07
9862,-100.63
9863,-103.39
9864,-98.69
9865,-85.06
9866,-63.05
9867,-35.34
9868,-6.01
9869,20.83
9870,42.28
9871,57.33
9872,66.54
9873,71.24
9874,72.69
9875,71.58
9876,68.2
9877,62.88
9878,56.45
9879,50.22
9880,45.66
9881,43.79
9882,44.7
9883,47.48
9884,50.53
9885,52.21
9886,51.41
9887,47.96
9888,42.5
9889,36.12
9890,29.83
9891,24.11
9892,18.85
9893,13.44
9894,7.2
