,time,BVP_1
0,2020-04-10 17:43:00.000000,35.13
1,2020-04-10 17:43:00.015625,36.54
2,2020-04-10 17:43:00.031250,37.81
3,2020-04-10 17:43:00.046875,38.04
4,2020-04-10 17:43:00.062500,36.67
5,2020-04-10 17:43:00.078125,33.62
6,2020-04-10 17:43:00.093750,29.31
7,2020-04-10 17:43:00.109375,24.42
8,2020-04-10 17:43:00.125000,19.61
9,2020-04-10 17:43:00.140625,15.25
10,2020-04-10 17:43:00.156250,11.26
11,2020-04-10 17:43:00.171875,7.24
12,2020-04-10 17:43:00.187500,2.71
13,2020-04-10 17:43:00.203125,-2.62
14,2020-04-10 17:43:00.218750,-8.61
15,2020-04-10 17:43:00.234375,-14.77
16,2020-04-10 17:43:00.250000,-20.43
17,2020-04-10 17:43:00.265625,-25.07
18,2020-04-10 17:43:00.281250,-28.54
19,2020-04-10 17:43:00.296875,-31.14
20,2020-04-10 17:43:00.312500,-33.51
21,2020-04-10 17:43:00.328125,-36.33
22,2020-04-10 17:43:00.343750,-40.16
23,2020-04-10 17:43:00.359375,-45.29
24,2020-04-10 17:43:00.375000,-51.77
25,2020-04-10 17:43:00.390625,-59.32
26,2020-04-10 17:43:00.406250,-67.26
27,2020-04-10 17:43:00.421875,-74.39
28,2020-04-10 17:43:00.437500,-78.98
29,2020-04-10 17:43:00.453125,-79.11
30,2020-04-10 17:43:00.468750,-73.25
31,2020-04-10 17:43:00.484375,-60.88
32,2020-04-10 17:43:00.500000,-42.88
33,2020-04-10 17:43:00.515625,-21.43
34,2020-04-10 17:43:00.531250,0.6
35,2020-04-10 17:43:00.546875,20.49
36,2020-04-10 17:43:00.562500,36.39
37,2020-04-10 17:43:00.578125,47.66
38,2020-04-10 17:43:00.593750,54.63
39,2020-04-10 17:43:00.609375,58.17
40,2020-04-10 17:43:00.625000,59.16
41,2020-04-10 17:43:00.640625,58.25
42,2020-04-10 17:43:00.656250,55.93
43,2020-04-10 17:43:00.671875,52.63
44,2020-04-10 17:43:00.687500,48.95
45,2020-04-10 17:43:00.703125,45.59
46,2020-04-10 17:43:00.718750,43.25
47,2020-04-10 17:43:00.734375,42.35
48,2020-04-10 17:43:00.750000,42.81
49,2020-04-10 17:43:00.765625,44.09
50,2020-04-10 17:43:00.781250,45.38
51,2020-04-10 17:43:00.796875,45.85
52,2020-04-10 17:43:00.812500,44.99
53,2020-04-10 17:43:00.828125,42.67
54,2020-04-10 17:43:00.843750,39.07
55,2020-04-10 17:43:00.859375,34.57
56,2020-04-10 17:43:00.875000,29.57
57,2020-04-10 17:43:00.890625,24.36
58,2020-04-10 17:43:00.906250,19.13
59,2020-04-10 17:43:00.921875,13.96
60,2020-04-10 17:43:00.937500,8.85
61,2020-04-10 17:43:00.953125,3.76
62,2020-04-10 17:43:00.968750,-1.33
63,2020-04-10 17:43:00.984375,-6.39
64,2020-04-10 17:43:01.000000,-11.36
65,2020-04-10 17:43:01.015625,-16.09
66,2020-04-10 17:43:01.031250,-20.45
67,2020-04-10 17:43:01.046875,-24.36
68,2020-04-10 17:43:01.062500,-27.85
69,2020-04-10 17:43:01.078125,-31.04
70,2020-04-10 17:43:01.093750,-34.13
71,2020-04-10 17:43:01.109375,-37.36
72,2020-04-10 17:43:01.125000,-41.01
73,2020-04-10 17:43:01.140625,-45.49
74,2020-04-10 17:43:01.156250,-51.16
75,2020-04-10 17:43:01.171875,-58.12
76,2020-04-10 17:43:01.187500,-65.78
77,2020-04-10 17:43:01.203125,-72.72
78,2020-04-10 17:43:01.218750,-76.8
79,2020-04-10 17:43:01.234375,-75.8
80,2020-04-10 17:43:01.250000,-68.23
81,2020-04-10 17:43:01.265625,-54.07
82,2020-04-10 17:43:01.281250,-34.9
83,2020-04-10 17:43:01.296875,-13.45
84,2020-04-10 17:43:01.312500,7.3
85,2020-04-10 17:43:01.328125,25.03
86,2020-04-10 17:43:01.343750,38.56
87,2020-04-10 17:43:01.359375,47.81
88,2020-04-10 17:43:01.375000,53.32
89,2020-04-10 17:43:01.390625,55.75
90,2020-04-10 17:43:01.406250,55.6
91,2020-04-10 17:43:01.421875,53.22
92,2020-04-10 17:43:01.437500,49.06
93,2020-04-10 17:43:01.453125,43.86
94,2020-04-10 17:43:01.468750,38.63
95,2020-04-10 17:43:01.484375,34.46
96,2020-04-10 17:43:01.500000,32.16
97,2020-04-10 17:43:01.515625,31.9
98,2020-04-10 17:43:01.531250,33.16
99,2020-04-10 17:43:01.546875,34.91
100,2020-04-10 17:43:01.562500,36.02
101,2020-04-10 17:43:01.578125,35.66
102,2020-04-10 17:43:01.593750,33.62
103,2020-04-10 17:43:01.609375,30.28
104,2020-04-10 17:43:01.625000,26.33
105,2020-04-10 17:43:01.640625,22.38
106,2020-04-10 17:43:01.656250,18.7
107,2020-04-10 17:43:01.671875,15.11
108,2020-04-10 17:43:01.687500,11.25
109,2020-04-10 17:43:01.703125,6.81
110,2020-04-10 17:43:01.718750,1.75
111,2020-04-10 17:43:01.734375,-3.65
112,2020-04-10 17:43:01.750000,-8.96
113,2020-04-10 17:43:01.765625,-13.81
114,2020-04-10 17:43:01.781250,-18.07
115,2020-04-10 17:43:01.796875,-21.82
116,2020-04-10 17:43:01.812500,-25.3
117,2020-04-10 17:43:01.828125,-28.7
118,2020-04-10 17:43:01.843750,-32.14
119,2020-04-10 17:43:01.859375,-35.66
120,2020-04-10 17:43:01.875000,-39.37
121,2020-04-10 17:43:01.890625,-43.58
122,2020-04-10 17:43:01.906250,-48.65
123,2020-04-10 17:43:01.921875,-54.76
124,2020-04-10 17:43:01.937500,-61.48
125,2020-04-10 17:43:01.953125,-67.53
126,2020-04-10 17:43:01.968750,-70.94
127,2020-04-10 17:43:01.984375,-69.6
128,2020-04-10 17:43:02.000000,-62.14
129,2020-04-10 17:43:02.015625,-48.57
130,2020-04-10 17:43:02.031250,-30.41
131,2020-04-10 17:43:02.046875,-10.27
132,2020-04-10 17:43:02.062500,9.07
133,2020-04-10 17:43:02.078125,25.52
134,2020-04-10 17:43:02.093750,38.11
135,2020-04-10 17:43:02.109375,46.85
136,2020-04-10 17:43:02.125000,52.21
137,2020-04-10 17:43:02.140625,54.61
138,2020-04-10 17:43:02.156250,54.25
139,2020-04-10 17:43:02.171875,51.27
140,2020-04-10 17:43:02.187500,46.18
141,2020-04-10 17:43:02.203125,40.01
142,2020-04-10 17:43:02.218750,34.2
143,2020-04-10 17:43:02.234375,30.12
144,2020-04-10 17:43:02.250000,28.55
145,2020-04-10 17:43:02.265625,29.35
146,2020-04-10 17:43:02.281250,31.53
147,2020-04-10 17:43:02.296875,33.67
148,2020-04-10 17:43:02.312500,34.51
149,2020-04-10 17:43:02.328125,33.44
150,2020-04-10 17:43:02.343750,30.61
151,2020-04-10 17:43:02.359375,26.74
152,2020-04-10 17:43:02.375000,22.63
153,2020-04-10 17:43:02.390625,18.79
154,2020-04-10 17:43:02.406250,15.16
155,2020-04-10 17:43:02.421875,11.28
156,2020-04-10 17:43:02.437500,6.6
157,2020-04-10 17:43:02.453125,0.84
158,2020-04-10 17:43:02.468750,-5.77
159,2020-04-10 17:43:02.484375,-12.53
160,2020-04-10 17:43:02.500000,-18.67
161,2020-04-10 17:43:02.515625,-23.62
162,2020-04-10 17:43:02.531250,-27.28
163,2020-04-10 17:43:02.546875,-30.05
164,2020-04-10 17:43:02.562500,-32.53
165,2020-04-10 17:43:02.578125,-35.34
166,2020-04-10 17:43:02.593750,-38.94
167,2020-04-10 17:43:02.609375,-43.57
168,2020-04-10 17:43:02.625000,-49.34
169,2020-04-10 17:43:02.640625,-56.13
170,2020-04-10 17:43:02.656250,-63.39
171,2020-04-10 17:43:02.671875,-70.0
172,2020-04-10 17:43:02.687500,-74.27
173,2020-04-10 17:43:02.703125,-74.29
174,2020-04-10 17:43:02.718750,-68.56
175,2020-04-10 17:43:02.734375,-56.64
176,2020-04-10 17:43:02.750000,-39.48
177,2020-04-10 17:43:02.765625,-19.24
178,2020-04-10 17:43:02.781250,1.35
179,2020-04-10 17:43:02.796875,19.8
180,2020-04-10 17:43:02.812500,34.52
181,2020-04-10 17:43:02.828125,44.99
182,2020-04-10 17:43:02.843750,51.49
183,2020-04-10 17:43:02.859375,54.68
184,2020-04-10 17:43:02.875000,55.18
185,2020-04-10 17:43:02.890625,53.42
186,2020-04-10 17:43:02.906250,49.85
187,2020-04-10 17:43:02.921875,45.11
188,2020-04-10 17:43:02.937500,40.17
189,2020-04-10 17:43:02.953125,36.12
190,2020-04-10 17:43:02.968750,33.84
191,2020-04-10 17:43:02.984375,33.57
192,2020-04-10 17:43:03.000000,34.8
193,2020-04-10 17:43:03.015625,36.46
194,2020-04-10 17:43:03.031250,37.35
195,2020-04-10 17:43:03.046875,36.66
196,2020-04-10 17:43:03.062500,34.23
197,2020-04-10 17:43:03.078125,30.52
198,2020-04-10 17:43:03.093750,26.33
199,2020-04-10 17:43:03.109375,22.29
200,2020-04-10 17:43:03.125000,18.6
201,2020-04-10 17:43:03.140625,14.91
202,2020-04-10 17:43:03.156250,10.63
203,2020-04-10 17:43:03.171875,5.27
204,2020-04-10 17:43:03.187500,-1.22
205,2020-04-10 17:43:03.203125,-8.31
206,2020-04-10 17:43:03.218750,-15.14
207,2020-04-10 17:43:03.234375,-20.85
208,2020-04-10 17:43:03.250000,-25.01
209,2020-04-10 17:43:03.265625,-27.84
210,2020-04-10 17:43:03.281250,-30.04
211,2020-04-10 17:43:03.296875,-32.53
212,2020-04-10 17:43:03.312500,-36.04
213,2020-04-10 17:43:03.328125,-40.97
214,2020-04-10 17:43:03.343750,-47.28
215,2020-04-10 17:43:03.359375,-54.57
216,2020-04-10 17:43:03.375000,-62.1
217,2020-04-10 17:43:03.390625,-68.74
218,2020-04-10 17:43:03.406250,-72.91
219,2020-04-10 17:43:03.421875,-72.88
220,2020-04-10 17:43:03.437500,-67.17
221,2020-04-10 17:43:03.453125,-55.24
222,2020-04-10 17:43:03.468750,-37.9
223,2020-04-10 17:43:03.484375,-17.25
224,2020-04-10 17:43:03.500000,3.85
225,2020-04-10 17:43:03.515625,22.68
226,2020-04-10 17:43:03.531250,37.48
227,2020-04-10 17:43:03.546875,47.67
228,2020-04-10 17:43:03.562500,53.72
229,2020-04-10 17:43:03.578125,56.54
230,2020-04-10 17:43:03.593750,56.97
231,2020-04-10 17:43:03.609375,55.54
232,2020-04-10 17:43:03.625000,52.57
233,2020-04-10 17:43:03.640625,48.43
234,2020-04-10 17:43:03.656250,43.76
235,2020-04-10 17:43:03.671875,39.44
236,2020-04-10 17:43:03.687500,36.32
237,2020-04-10 17:43:03.703125,34.92
238,2020-04-10 17:43:03.718750,35.23
239,2020-04-10 17:43:03.734375,36.68
240,2020-04-10 17:43:03.750000,38.31
241,2020-04-10 17:43:03.765625,39.13
242,2020-04-10 17:43:03.781250,38.42
243,2020-04-10 17:43:03.796875,35.92
244,2020-04-10 17:43:03.812500,31.88
245,2020-04-10 17:43:03.828125,26.87
246,2020-04-10 17:43:03.843750,21.55
247,2020-04-10 17:43:03.859375,16.43
248,2020-04-10 17:43:03.875000,11.66
249,2020-04-10 17:43:03.890625,7.11
250,2020-04-10 17:43:03.906250,2.47
251,2020-04-10 17:43:03.921875,-2.5
252,2020-04-10 17:43:03.937500,-7.83
253,2020-04-10 17:43:03.953125,-13.27
254,2020-04-10 17:43:03.968750,-18.42
255,2020-04-10 17:43:03.984375,-22.89
256,2020-04-10 17:43:04.000000,-26.53
257,2020-04-10 17:43:04.015625,-29.51
258,2020-04-10 17:43:04.031250,-32.21
259,2020-04-10 17:43:04.046875,-35.13
260,2020-04-10 17:43:04.062500,-38.69
261,2020-04-10 17:43:04.078125,-43.14
262,2020-04-10 17:43:04.093750,-48.58
263,2020-04-10 17:43:04.109375,-54.99
264,2020-04-10 17:43:04.125000,-62.09
265,2020-04-10 17:43:04.140625,-69.19
266,2020-04-10 17:43:04.156250,-74.96
267,2020-04-10 17:43:04.171875,-77.53
268,2020-04-10 17:43:04.187500,-74.96
269,2020-04-10 17:43:04.203125,-65.95
270,2020-04-10 17:43:04.218750,-50.48
271,2020-04-10 17:43:04.234375,-30.08
272,2020-04-10 17:43:04.250000,-7.49
273,2020-04-10 17:43:04.265625,14.23
274,2020-04-10 17:43:04.281250,32.54
275,2020-04-10 17:43:04.296875,46.09
276,2020-04-10 17:43:04.312500,54.72
277,2020-04-10 17:43:04.328125,59.12
278,2020-04-10 17:43:04.343750,60.23
279,2020-04-10 17:43:04.359375,58.86
280,2020-04-10 17:43:04.375000,55.61
281,2020-04-10 17:43:04.390625,51.07
282,2020-04-10 17:43:04.406250,45.96
283,2020-04-10 17:43:04.421875,41.19
284,2020-04-10 17:43:04.437500,37.66
285,2020-04-10 17:43:04.453125,35.96
286,2020-04-10 17:43:04.468750,36.11
287,2020-04-10 17:43:04.484375,37.53
288,2020-04-10 17:43:04.500000,39.24
289,2020-04-10 17:43:04.515625,40.18
290,2020-04-10 17:43:04.531250,39.61
291,2020-04-10 17:43:04.546875,37.31
292,2020-04-10 17:43:04.562500,33.59
293,2020-04-10 17:43:04.578125,29.08
294,2020-04-10 17:43:04.593750,24.43
295,2020-04-10 17:43:04.609375,20.08
296,2020-04-10 17:43:04.625000,16.06
297,2020-04-10 17:43:04.640625,12.13
298,2020-04-10 17:43:04.656250,7.86
299,2020-04-10 17:43:04.671875,2.97
300,2020-04-10 17:43:04.687500,-2.57
301,2020-04-10 17:43:04.703125,-8.43
302,2020-04-10 17:43:04.718750,-14.1
303,2020-04-10 17:43:04.734375,-19.07
304,2020-04-10 17:43:04.750000,-23.1
305,2020-04-10 17:43:04.765625,-26.27
306,2020-04-10 17:43:04.781250,-29.0
307,2020-04-10 17:43:04.796875,-31.79
308,2020-04-10 17:43:04.812500,-35.04
309,2020-04-10 17:43:04.828125,-38.99
310,2020-04-10 17:43:04.843750,-43.76
311,2020-04-10 17:43:04.859375,-49.38
312,2020-04-10 17:43:04.875000,-55.8
313,2020-04-10 17:43:04.890625,-62.61
314,2020-04-10 17:43:04.906250,-68.8
315,2020-04-10 17:43:04.921875,-72.73
316,2020-04-10 17:43:04.937500,-72.44
317,2020-04-10 17:43:04.953125,-66.35
318,2020-04-10 17:43:04.968750,-53.96
319,2020-04-10 17:43:04.984375,-36.32
320,2020-04-10 17:43:05.000000,-15.76
321,2020-04-10 17:43:05.015625,4.78
322,2020-04-10 17:43:05.031250,22.75
323,2020-04-10 17:43:05.046875,36.61
324,2020-04-10 17:43:05.062500,46.02
325,2020-04-10 17:43:05.078125,51.42
326,2020-04-10 17:43:05.093750,53.54
327,2020-04-10 17:43:05.109375,52.96
328,2020-04-10 17:43:05.125000,50.08
329,2020-04-10 17:43:05.140625,45.38
330,2020-04-10 17:43:05.156250,39.69
331,2020-04-10 17:43:05.171875,34.2
332,2020-04-10 17:43:05.187500,30.14
333,2020-04-10 17:43:05.203125,28.39
334,2020-04-10 17:43:05.218750,29.03
335,2020-04-10 17:43:05.234375,31.3
336,2020-04-10 17:43:05.250000,33.86
337,2020-04-10 17:43:05.265625,35.37
338,2020-04-10 17:43:05.281250,34.98
339,2020-04-10 17:43:05.296875,32.62
340,2020-04-10 17:43:05.312500,28.9
341,2020-04-10 17:43:05.328125,24.7
342,2020-04-10 17:43:05.343750,20.69
343,2020-04-10 17:43:05.359375,17.03
344,2020-04-10 17:43:05.375000,13.39
345,2020-04-10 17:43:05.390625,9.16
346,2020-04-10 17:43:05.406250,3.89
347,2020-04-10 17:43:05.421875,-2.41
348,2020-04-10 17:43:05.437500,-9.2
349,2020-04-10 17:43:05.453125,-15.59
350,2020-04-10 17:43:05.468750,-20.78
351,2020-04-10 17:43:05.484375,-24.38
352,2020-04-10 17:43:05.500000,-26.66
353,2020-04-10 17:43:05.515625,-28.38
354,2020-04-10 17:43:05.531250,-30.51
355,2020-04-10 17:43:05.546875,-33.88
356,2020-04-10 17:43:05.562500,-38.86
357,2020-04-10 17:43:05.578125,-45.37
358,2020-04-10 17:43:05.593750,-52.86
359,2020-04-10 17:43:05.609375,-60.39
360,2020-04-10 17:43:05.625000,-66.69
361,2020-04-10 17:43:05.640625,-70.19
362,2020-04-10 17:43:05.656250,-69.35
363,2020-04-10 17:43:05.671875,-63.07
364,2020-04-10 17:43:05.687500,-51.13
365,2020-04-10 17:43:05.703125,-34.5
366,2020-04-10 17:43:05.718750,-15.2
367,2020-04-10 17:43:05.734375,4.23
368,2020-04-10 17:43:05.750000,21.42
369,2020-04-10 17:43:05.765625,34.8
370,2020-04-10 17:43:05.781250,43.79
371,2020-04-10 17:43:05.796875,48.68
372,2020-04-10 17:43:05.812500,50.18
373,2020-04-10 17:43:05.828125,49.08
374,2020-04-10 17:43:05.843750,46.1
375,2020-04-10 17:43:05.859375,41.92
376,2020-04-10 17:43:05.875000,37.29
377,2020-04-10 17:43:05.890625,33.06
378,2020-04-10 17:43:05.906250,30.01
379,2020-04-10 17:43:05.921875,28.64
380,2020-04-10 17:43:05.937500,28.94
381,2020-04-10 17:43:05.953125,30.4
382,2020-04-10 17:43:05.968750,32.13
383,2020-04-10 17:43:05.984375,33.14
384,2020-04-10 17:43:06.000000,32.73
385,2020-04-10 17:43:06.015625,30.63
386,2020-04-10 17:43:06.031250,27.07
387,2020-04-10 17:43:06.046875,22.64
388,2020-04-10 17:43:06.062500,18.03
389,2020-04-10 17:43:06.078125,13.71
390,2020-04-10 17:43:06.093750,9.71
391,2020-04-10 17:43:06.109375,5.68
392,2020-04-10 17:43:06.125000,1.07
393,2020-04-10 17:43:06.140625,-4.56
394,2020-04-10 17:43:06.156250,-11.16
395,2020-04-10 17:43:06.171875,-18.15
396,2020-04-10 17:43:06.187500,-24.62
397,2020-04-10 17:43:06.203125,-29.69
398,2020-04-10 17:43:06.218750,-33.0
399,2020-04-10 17:43:06.234375,-34.89
400,2020-04-10 17:43:06.250000,-36.27
401,2020-04-10 17:43:06.265625,-38.28
402,2020-04-10 17:43:06.281250,-41.85
403,2020-04-10 17:43:06.296875,-47.38
404,2020-04-10 17:43:06.312500,-54.64
405,2020-04-10 17:43:06.328125,-62.83
406,2020-04-10 17:43:06.343750,-70.59
407,2020-04-10 17:43:06.359375,-76.19
408,2020-04-10 17:43:06.375000,-77.79
409,2020-04-10 17:43:06.390625,-73.85
410,2020-04-10 17:43:06.406250,-63.64
411,2020-04-10 17:43:06.421875,-47.69
412,2020-04-10 17:43:06.437500,-27.73
413,2020-04-10 17:43:06.453125,-6.39
414,2020-04-10 17:43:06.468750,13.63
415,2020-04-10 17:43:06.484375,30.28
416,2020-04-10 17:43:06.500000,42.53
417,2020-04-10 17:43:06.515625,50.36
418,2020-04-10 17:43:06.531250,54.36
419,2020-04-10 17:43:06.546875,55.28
420,2020-04-10 17:43:06.562500,53.78
421,2020-04-10 17:43:06.578125,50.47
422,2020-04-10 17:43:06.593750,46.07
423,2020-04-10 17:43:06.609375,41.42
424,2020-04-10 17:43:06.625000,37.43
425,2020-04-10 17:43:06.640625,34.79
426,2020-04-10 17:43:06.656250,33.78
427,2020-04-10 17:43:06.671875,34.14
428,2020-04-10 17:43:06.687500,35.25
429,2020-04-10 17:43:06.703125,36.26
430,2020-04-10 17:43:06.718750,36.44
431,2020-04-10 17:43:06.734375,35.28
432,2020-04-10 17:43:06.750000,32.6
433,2020-04-10 17:43:06.765625,28.54
434,2020-04-10 17:43:06.781250,23.5
435,2020-04-10 17:43:06.796875,18.01
436,2020-04-10 17:43:06.812500,12.59
437,2020-04-10 17:43:06.828125,7.56
438,2020-04-10 17:43:06.843750,2.93
439,2020-04-10 17:43:06.859375,-1.6
440,2020-04-10 17:43:06.875000,-6.43
441,2020-04-10 17:43:06.890625,-11.84
442,2020-04-10 17:43:06.906250,-17.72
443,2020-04-10 17:43:06.921875,-23.6
444,2020-04-10 17:43:06.937500,-28.76
445,2020-04-10 17:43:06.953125,-32.67
446,2020-04-10 17:43:06.968750,-35.23
447,2020-04-10 17:43:06.984375,-36.9
448,2020-04-10 17:43:07.000000,-38.52
449,2020-04-10 17:43:07.015625,-41.0
450,2020-04-10 17:43:07.031250,-44.97
451,2020-04-10 17:43:07.046875,-50.61
452,2020-04-10 17:43:07.062500,-57.49
453,2020-04-10 17:43:07.078125,-64.65
454,2020-04-10 17:43:07.093750,-70.66
455,2020-04-10 17:43:07.109375,-73.84
456,2020-04-10 17:43:07.125000,-72.6
457,2020-04-10 17:43:07.140625,-65.86
458,2020-04-10 17:43:07.156250,-53.44
459,2020-04-10 17:43:07.171875,-36.28
460,2020-04-10 17:43:07.187500,-16.27
461,2020-04-10 17:43:07.203125,4.17
462,2020-04-10 17:43:07.218750,22.74
463,2020-04-10 17:43:07.234375,37.78
464,2020-04-10 17:43:07.250000,48.47
465,2020-04-10 17:43:07.265625,54.81
466,2020-04-10 17:43:07.281250,57.32
467,2020-04-10 17:43:07.296875,56.81
468,2020-04-10 17:43:07.312500,54.16
469,2020-04-10 17:43:07.328125,50.31
470,2020-04-10 17:43:07.343750,46.13
471,2020-04-10 17:43:07.359375,42.4
472,2020-04-10 17:43:07.375000,39.69
473,2020-04-10 17:43:07.390625,38.23
474,2020-04-10 17:43:07.406250,37.95
475,2020-04-10 17:43:07.421875,38.47
476,2020-04-10 17:43:07.437500,39.21
477,2020-04-10 17:43:07.453125,39.57
478,2020-04-10 17:43:07.468750,39.04
479,2020-04-10 17:43:07.484375,37.31
480,2020-04-10 17:43:07.500000,34.32
481,2020-04-10 17:43:07.515625,30.26
482,2020-04-10 17:43:07.531250,25.53
483,2020-04-10 17:43:07.546875,20.55
484,2020-04-10 17:43:07.562500,15.71
485,2020-04-10 17:43:07.578125,11.2
486,2020-04-10 17:43:07.593750,6.95
487,2020-04-10 17:43:07.609375,2.74
488,2020-04-10 17:43:07.625000,-1.75
489,2020-04-10 17:43:07.640625,-6.71
490,2020-04-10 17:43:07.656250,-12.06
491,2020-04-10 17:43:07.671875,-17.49
492,2020-04-10 17:43:07.687500,-22.5
493,2020-04-10 17:43:07.703125,-26.64
494,2020-04-10 17:43:07.718750,-29.77
495,2020-04-10 17:43:07.734375,-32.07
496,2020-04-10 17:43:07.750000,-34.1
497,2020-04-10 17:43:07.765625,-36.52
498,2020-04-10 17:43:07.781250,-39.96
499,2020-04-10 17:43:07.796875,-44.79
500,2020-04-10 17:43:07.812500,-51.04
501,2020-04-10 17:43:07.828125,-58.29
502,2020-04-10 17:43:07.843750,-65.63
503,2020-04-10 17:43:07.859375,-71.64
504,2020-04-10 17:43:07.875000,-74.56
505,2020-04-10 17:43:07.890625,-72.68
506,2020-04-10 17:43:07.906250,-64.88
507,2020-04-10 17:43:07.921875,-51.2
508,2020-04-10 17:43:07.937500,-32.94
509,2020-04-10 17:43:07.953125,-12.46
510,2020-04-10 17:43:07.968750,7.47
511,2020-04-10 17:43:07.984375,24.49
512,2020-04-10 17:43:08.000000,37.17
513,2020-04-10 17:43:08.015625,45.13
514,2020-04-10 17:43:08.031250,48.88
515,2020-04-10 17:43:08.046875,49.29
516,2020-04-10 17:43:08.062500,47.32
517,2020-04-10 17:43:08.078125,43.79
518,2020-04-10 17:43:08.093750,39.38
519,2020-04-10 17:43:08.109375,34.77
520,2020-04-10 17:43:08.125000,30.6
521,2020-04-10 17:43:08.140625,27.45
522,2020-04-10 17:43:08.156250,25.77
523,2020-04-10 17:43:08.171875,25.68
524,2020-04-10 17:43:08.187500,26.93
525,2020-04-10 17:43:08.203125,28.88
526,2020-04-10 17:43:08.218750,30.64
527,2020-04-10 17:43:08.234375,31.32
528,2020-04-10 17:43:08.250000,30.32
529,2020-04-10 17:43:08.265625,27.53
530,2020-04-10 17:43:08.281250,23.32
531,2020-04-10 17:43:08.296875,18.45
532,2020-04-10 17:43:08.312500,13.64
533,2020-04-10 17:43:08.328125,9.34
534,2020-04-10 17:43:08.343750,5.49
535,2020-04-10 17:43:08.359375,1.65
536,2020-04-10 17:43:08.375000,-2.68
537,2020-04-10 17:43:08.390625,-7.75
538,2020-04-10 17:43:08.406250,-13.37
539,2020-04-10 17:43:08.421875,-18.95
540,2020-04-10 17:43:08.437500,-23.8
541,2020-04-10 17:43:08.453125,-27.46
542,2020-04-10 17:43:08.468750,-29.92
543,2020-04-10 17:43:08.484375,-31.62
544,2020-04-10 17:43:08.500000,-33.26
545,2020-04-10 17:43:08.515625,-35.52
546,2020-04-10 17:43:08.531250,-38.85
547,2020-04-10 17:43:08.546875,-43.43
548,2020-04-10 17:43:08.562500,-49.2
549,2020-04-10 17:43:08.578125,-55.85
550,2020-04-10 17:43:08.593750,-62.72
551,2020-04-10 17:43:08.609375,-68.64
552,2020-04-10 17:43:08.625000,-71.98
553,2020-04-10 17:43:08.640625,-70.97
554,2020-04-10 17:43:08.656250,-64.31
555,2020-04-10 17:43:08.671875,-51.78
556,2020-04-10 17:43:08.687500,-34.52
557,2020-04-10 17:43:08.703125,-14.8
558,2020-04-10 17:43:08.718750,4.65
559,2020-04-10 17:43:08.734375,21.49
560,2020-04-10 17:43:08.750000,34.33
561,2020-04-10 17:43:08.765625,42.91
562,2020-04-10 17:43:08.781250,47.68
563,2020-04-10 17:43:08.796875,49.41
564,2020-04-10 17:43:08.812500,48.71
565,2020-04-10 17:43:08.828125,46.07
566,2020-04-10 17:43:08.843750,41.95
567,2020-04-10 17:43:08.859375,37.06
568,2020-04-10 17:43:08.875000,32.29
569,2020-04-10 17:43:08.890625,28.61
570,2020-04-10 17:43:08.906250,26.69
571,2020-04-10 17:43:08.921875,26.61
572,2020-04-10 17:43:08.937500,27.87
573,2020-04-10 17:43:08.953125,29.46
574,2020-04-10 17:43:08.968750,30.32
575,2020-04-10 17:43:08.984375,29.67
576,2020-04-10 17:43:09.000000,27.23
577,2020-04-10 17:43:09.015625,23.32
578,2020-04-10 17:43:09.031250,18.64
579,2020-04-10 17:43:09.046875,13.9
580,2020-04-10 17:43:09.062500,9.56
581,2020-04-10 17:43:09.078125,5.64
582,2020-04-10 17:43:09.093750,1.73
583,2020-04-10 17:43:09.109375,-2.68
584,2020-04-10 17:43:09.125000,-7.95
585,2020-04-10 17:43:09.140625,-13.98
586,2020-04-10 17:43:09.156250,-20.23
587,2020-04-10 17:43:09.171875,-25.91
588,2020-04-10 17:43:09.187500,-30.39
589,2020-04-10 17:43:09.203125,-33.47
590,2020-04-10 17:43:09.218750,-35.52
591,2020-04-10 17:43:09.234375,-37.26
592,2020-04-10 17:43:09.250000,-39.56
593,2020-04-10 17:43:09.265625,-43.08
594,2020-04-10 17:43:09.281250,-48.14
595,2020-04-10 17:43:09.296875,-54.67
596,2020-04-10 17:43:09.312500,-62.12
597,2020-04-10 17:43:09.328125,-69.43
598,2020-04-10 17:43:09.343750,-75.1
599,2020-04-10 17:43:09.359375,-77.35
600,2020-04-10 17:43:09.375000,-74.6
601,2020-04-10 17:43:09.390625,-65.93
602,2020-04-10 17:43:09.406250,-51.53
603,2020-04-10 17:43:09.421875,-32.84
604,2020-04-10 17:43:09.437500,-12.17
605,2020-04-10 17:43:09.453125,7.87
606,2020-04-10 17:43:09.468750,25.13
607,2020-04-10 17:43:09.484375,38.31
608,2020-04-10 17:43:09.500000,47.14
609,2020-04-10 17:43:09.515625,52.07
610,2020-04-10 17:43:09.531250,53.9
611,2020-04-10 17:43:09.546875,53.47
612,2020-04-10 17:43:09.562500,51.42
613,2020-04-10 17:43:09.578125,48.34
614,2020-04-10 17:43:09.593750,44.77
615,2020-04-10 17:43:09.609375,41.29
616,2020-04-10 17:43:09.625000,38.5
617,2020-04-10 17:43:09.640625,36.83
618,2020-04-10 17:43:09.656250,36.41
619,2020-04-10 17:43:09.671875,36.92
620,2020-04-10 17:43:09.687500,37.75
621,2020-04-10 17:43:09.703125,38.12
622,2020-04-10 17:43:09.718750,37.38
623,2020-04-10 17:43:09.734375,35.21
624,2020-04-10 17:43:09.750000,31.62
625,2020-04-10 17:43:09.765625,26.96
626,2020-04-10 17:43:09.781250,21.73
627,2020-04-10 17:43:09.796875,16.44
628,2020-04-10 17:43:09.812500,11.39
629,2020-04-10 17:43:09.828125,6.64
630,2020-04-10 17:43:09.843750,1.98
631,2020-04-10 17:43:09.859375,-2.89
632,2020-04-10 17:43:09.875000,-8.22
633,2020-04-10 17:43:09.890625,-14.0
634,2020-04-10 17:43:09.906250,-19.89
635,2020-04-10 17:43:09.921875,-25.37
636,2020-04-10 17:43:09.937500,-30.0
637,2020-04-10 17:43:09.953125,-33.6
638,2020-04-10 17:43:09.968750,-36.43
639,2020-04-10 17:43:09.984375,-39.08
640,2020-04-10 17:43:10.000000,-42.2
641,2020-04-10 17:43:10.015625,-46.29
642,2020-04-10 17:43:10.031250,-51.6
643,2020-04-10 17:43:10.046875,-58.09
644,2020-04-10 17:43:10.062500,-65.41
645,2020-04-10 17:43:10.078125,-72.84
646,2020-04-10 17:43:10.093750,-79.16
647,2020-04-10 17:43:10.109375,-82.69
648,2020-04-10 17:43:10.125000,-81.61
649,2020-04-10 17:43:10.140625,-74.52
650,2020-04-10 17:43:10.156250,-61.08
651,2020-04-10 17:43:10.171875,-42.36
652,2020-04-10 17:43:10.187500,-20.64
653,2020-04-10 17:43:10.203125,1.17
654,2020-04-10 17:43:10.218750,20.45
655,2020-04-10 17:43:10.234375,35.53
656,2020-04-10 17:43:10.250000,45.92
657,2020-04-10 17:43:10.265625,52.09
658,2020-04-10 17:43:10.281250,55.0
659,2020-04-10 17:43:10.296875,55.58
660,2020-04-10 17:43:10.312500,54.52
661,2020-04-10 17:43:10.328125,52.32
662,2020-04-10 17:43:10.343750,49.43
663,2020-04-10 17:43:10.359375,46.36
664,2020-04-10 17:43:10.375000,43.68
665,2020-04-10 17:43:10.390625,41.88
666,2020-04-10 17:43:10.406250,41.2
667,2020-04-10 17:43:10.421875,41.5
668,2020-04-10 17:43:10.437500,42.31
669,2020-04-10 17:43:10.453125,42.97
670,2020-04-10 17:43:10.468750,42.8
671,2020-04-10 17:43:10.484375,41.37
672,2020-04-10 17:43:10.500000,38.54
673,2020-04-10 17:43:10.515625,34.54
674,2020-04-10 17:43:10.531250,29.82
675,2020-04-10 17:43:10.546875,24.87
676,2020-04-10 17:43:10.562500,20.05
677,2020-04-10 17:43:10.578125,15.49
678,2020-04-10 17:43:10.593750,11.04
679,2020-04-10 17:43:10.609375,6.49
680,2020-04-10 17:43:10.625000,1.67
681,2020-04-10 17:43:10.640625,-3.38
682,2020-04-10 17:43:10.656250,-8.41
683,2020-04-10 17:43:10.671875,-13.11
684,2020-04-10 17:43:10.687500,-17.28
685,2020-04-10 17:43:10.703125,-20.93
686,2020-04-10 17:43:10.718750,-24.34
687,2020-04-10 17:43:10.734375,-27.85
688,2020-04-10 17:43:10.750000,-31.73
689,2020-04-10 17:43:10.765625,-36.02
690,2020-04-10 17:43:10.781250,-40.65
691,2020-04-10 17:43:10.796875,-45.52
692,2020-04-10 17:43:10.812500,-50.77
693,2020-04-10 17:43:10.828125,-56.69
694,2020-04-10 17:43:10.843750,-63.43
695,2020-04-10 17:43:10.859375,-70.54
696,2020-04-10 17:43:10.875000,-76.65
697,2020-04-10 17:43:10.890625,-79.64
698,2020-04-10 17:43:10.906250,-77.26
699,2020-04-10 17:43:10.921875,-68.13
700,2020-04-10 17:43:10.937500,-52.43
701,2020-04-10 17:43:10.953125,-32.06
702,2020-04-10 17:43:10.968750,-10.07
703,2020-04-10 17:43:10.984375,10.46
704,2020-04-10 17:43:11.000000,27.35
705,2020-04-10 17:43:11.015625,39.75
706,2020-04-10 17:43:11.031250,47.98
707,2020-04-10 17:43:11.046875,52.83
708,2020-04-10 17:43:11.062500,55.0
709,2020-04-10 17:43:11.078125,54.9
710,2020-04-10 17:43:11.093750,52.74
711,2020-04-10 17:43:11.109375,48.96
712,2020-04-10 17:43:11.125000,44.39
713,2020-04-10 17:43:11.140625,40.12
714,2020-04-10 17:43:11.156250,37.2
715,2020-04-10 17:43:11.171875,36.17
716,2020-04-10 17:43:11.187500,36.86
717,2020-04-10 17:43:11.203125,38.5
718,2020-04-10 17:43:11.218750,40.06
719,2020-04-10 17:43:11.234375,40.68
720,2020-04-10 17:43:11.250000,39.95
721,2020-04-10 17:43:11.265625,37.95
722,2020-04-10 17:43:11.281250,35.07
723,2020-04-10 17:43:11.296875,31.71
724,2020-04-10 17:43:11.312500,28.12
725,2020-04-10 17:43:11.328125,24.28
726,2020-04-10 17:43:11.343750,20.03
727,2020-04-10 17:43:11.359375,15.26
728,2020-04-10 17:43:11.375000,10.06
729,2020-04-10 17:43:11.390625,4.67
730,2020-04-10 17:43:11.406250,-0.6
731,2020-04-10 17:43:11.421875,-5.52
732,2020-04-10 17:43:11.437500,-10.07
733,2020-04-10 17:43:11.453125,-14.36
734,2020-04-10 17:43:11.468750,-18.55
735,2020-04-10 17:43:11.484375,-22.67
736,2020-04-10 17:43:11.500000,-26.6
737,2020-04-10 17:43:11.515625,-30.19
738,2020-04-10 17:43:11.531250,-33.36
739,2020-04-10 17:43:11.546875,-36.27
740,2020-04-10 17:43:11.562500,-39.36
741,2020-04-10 17:43:11.578125,-43.25
742,2020-04-10 17:43:11.593750,-48.56
743,2020-04-10 17:43:11.609375,-55.53
744,2020-04-10 17:43:11.625000,-63.73
745,2020-04-10 17:43:11.640625,-71.84
746,2020-04-10 17:43:11.656250,-77.78
747,2020-04-10 17:43:11.671875,-79.27
748,2020-04-10 17:43:11.687500,-74.57
749,2020-04-10 17:43:11.703125,-63.21
750,2020-04-10 17:43:11.718750,-46.29
751,2020-04-10 17:43:11.734375,-26.18
752,2020-04-10 17:43:11.750000,-5.68
753,2020-04-10 17:43:11.765625,12.84
754,2020-04-10 17:43:11.781250,28.06
755,2020-04-10 17:43:11.796875,39.65
756,2020-04-10 17:43:11.812500,47.85
757,2020-04-10 17:43:11.828125,52.93
758,2020-04-10 17:43:11.843750,54.96
759,2020-04-10 17:43:11.859375,53.95
760,2020-04-10 17:43:11.875000,50.3
761,2020-04-10 17:43:11.890625,45.02
762,2020-04-10 17:43:11.906250,39.59
763,2020-04-10 17:43:11.921875,35.46
764,2020-04-10 17:43:11.937500,33.5
765,2020-04-10 17:43:11.953125,33.66
766,2020-04-10 17:43:11.968750,35.05
767,2020-04-10 17:43:11.984375,36.45
768,2020-04-10 17:43:12.000000,36.88
769,2020-04-10 17:43:12.015625,35.91
770,2020-04-10 17:43:12.031250,33.7
771,2020-04-10 17:43:12.046875,30.68
772,2020-04-10 17:43:12.062500,27.29
773,2020-04-10 17:43:12.078125,23.69
774,2020-04-10 17:43:12.093750,19.79
775,2020-04-10 17:43:12.109375,15.39
776,2020-04-10 17:43:12.125000,10.41
777,2020-04-10 17:43:12.140625,4.92
778,2020-04-10 17:43:12.156250,-0.83
779,2020-04-10 17:43:12.171875,-6.5
780,2020-04-10 17:43:12.187500,-11.78
781,2020-04-10 17:43:12.203125,-16.48
782,2020-04-10 17:43:12.218750,-20.55
783,2020-04-10 17:43:12.234375,-24.08
784,2020-04-10 17:43:12.250000,-27.23
785,2020-04-10 17:43:12.265625,-30.2
786,2020-04-10 17:43:12.281250,-33.26
787,2020-04-10 17:43:12.296875,-36.69
788,2020-04-10 17:43:12.312500,-40.89
789,2020-04-10 17:43:12.328125,-46.2
790,2020-04-10 17:43:12.343750,-52.72
791,2020-04-10 17:43:12.359375,-59.98
792,2020-04-10 17:43:12.375000,-66.72
793,2020-04-10 17:43:12.390625,-71.04
794,2020-04-10 17:43:12.406250,-70.87
795,2020-04-10 17:43:12.421875,-64.77
796,2020-04-10 17:43:12.437500,-52.48
797,2020-04-10 17:43:12.453125,-35.26
798,2020-04-10 17:43:12.468750,-15.47
799,2020-04-10 17:43:12.484375,4.24
800,2020-04-10 17:43:12.500000,21.69
801,2020-04-10 17:43:12.515625,35.73
802,2020-04-10 17:43:12.531250,46.16
803,2020-04-10 17:43:12.546875,53.28
804,2020-04-10 17:43:12.562500,57.39
805,2020-04-10 17:43:12.578125,58.66
806,2020-04-10 17:43:12.593750,57.16
807,2020-04-10 17:43:12.609375,53.28
808,2020-04-10 17:43:12.625000,47.93
809,2020-04-10 17:43:12.640625,42.39
810,2020-04-10 17:43:12.656250,38.0
811,2020-04-10 17:43:12.671875,35.57
812,2020-04-10 17:43:12.687500,35.15
813,2020-04-10 17:43:12.703125,35.97
814,2020-04-10 17:43:12.718750,36.87
815,2020-04-10 17:43:12.734375,36.75
816,2020-04-10 17:43:12.750000,35.07
817,2020-04-10 17:43:12.765625,31.87
818,2020-04-10 17:43:12.781250,27.71
819,2020-04-10 17:43:12.796875,23.27
820,2020-04-10 17:43:12.812500,18.99
821,2020-04-10 17:43:12.828125,14.94
822,2020-04-10 17:43:12.843750,10.84
823,2020-04-10 17:43:12.859375,6.34
824,2020-04-10 17:43:12.875000,1.17
825,2020-04-10 17:43:12.890625,-4.56
826,2020-04-10 17:43:12.906250,-10.48
827,2020-04-10 17:43:12.921875,-16.1
828,2020-04-10 17:43:12.937500,-21.0
829,2020-04-10 17:43:12.953125,-25.04
830,2020-04-10 17:43:12.968750,-28.34
831,2020-04-10 17:43:12.984375,-31.25
832,2020-04-10 17:43:13.000000,-34.14
833,2020-04-10 17:43:13.015625,-37.32
834,2020-04-10 17:43:13.031250,-41.08
835,2020-04-10 17:43:13.046875,-45.7
836,2020-04-10 17:43:13.062500,-51.45
837,2020-04-10 17:43:13.078125,-58.38
838,2020-04-10 17:43:13.093750,-65.98
839,2020-04-10 17:43:13.109375,-72.99
840,2020-04-10 17:43:13.125000,-77.41
841,2020-04-10 17:43:13.140625,-77.05
842,2020-04-10 17:43:13.156250,-70.33
843,2020-04-10 17:43:13.171875,-56.98
844,2020-04-10 17:43:13.187500,-38.36
845,2020-04-10 17:43:13.203125,-17.06
846,2020-04-10 17:43:13.218750,3.93
847,2020-04-10 17:43:13.234375,22.19
848,2020-04-10 17:43:13.250000,36.44
849,2020-04-10 17:43:13.265625,46.6
850,2020-04-10 17:43:13.281250,53.3
851,2020-04-10 17:43:13.296875,57.25
852,2020-04-10 17:43:13.312500,58.93
853,2020-04-10 17:43:13.328125,58.48
854,2020-04-10 17:43:13.343750,56.07
855,2020-04-10 17:43:13.359375,52.19
856,2020-04-10 17:43:13.375000,47.68
857,2020-04-10 17:43:13.390625,43.63
858,2020-04-10 17:43:13.406250,40.9
859,2020-04-10 17:43:13.421875,39.87
860,2020-04-10 17:43:13.437500,40.22
861,2020-04-10 17:43:13.453125,41.14
862,2020-04-10 17:43:13.468750,41.64
863,2020-04-10 17:43:13.484375,40.92
864,2020-04-10 17:43:13.500000,38.68
865,2020-04-10 17:43:13.515625,35.09
866,2020-04-10 17:43:13.531250,30.68
867,2020-04-10 17:43:13.546875,26.02
868,2020-04-10 17:43:13.562500,21.44
869,2020-04-10 17:43:13.578125,16.99
870,2020-04-10 17:43:13.593750,12.48
871,2020-04-10 17:43:13.609375,7.68
872,2020-04-10 17:43:13.625000,2.5
873,2020-04-10 17:43:13.640625,-2.94
874,2020-04-10 17:43:13.656250,-8.32
875,2020-04-10 17:43:13.671875,-13.33
876,2020-04-10 17:43:13.687500,-17.8
877,2020-04-10 17:43:13.703125,-21.73
878,2020-04-10 17:43:13.718750,-25.27
879,2020-04-10 17:43:13.734375,-28.62
880,2020-04-10 17:43:13.750000,-31.91
881,2020-04-10 17:43:13.765625,-35.26
882,2020-04-10 17:43:13.781250,-38.8
883,2020-04-10 17:43:13.796875,-42.85
884,2020-04-10 17:43:13.812500,-47.81
885,2020-04-10 17:43:13.828125,-54.0
886,2020-04-10 17:43:13.843750,-61.28
887,2020-04-10 17:43:13.859375,-68.73
888,2020-04-10 17:43:13.875000,-74.54
889,2020-04-10 17:43:13.890625,-76.43
890,2020-04-10 17:43:13.906250,-72.41
891,2020-04-10 17:43:13.921875,-61.6
892,2020-04-10 17:43:13.937500,-44.77
893,2020-04-10 17:43:13.953125,-24.19
894,2020-04-10 17:43:13.968750,-2.88
895,2020-04-10 17:43:13.984375,16.38
896,2020-04-10 17:43:14.000000,31.91
897,2020-04-10 17:43:14.015625,43.28
898,2020-04-10 17:43:14.031250,50.95
899,2020-04-10 17:43:14.046875,55.67
900,2020-04-10 17:43:14.062500,57.91
901,2020-04-10 17:43:14.078125,57.86
902,2020-04-10 17:43:14.093750,55.61
903,2020-04-10 17:43:14.109375,51.62
904,2020-04-10 17:43:14.125000,46.79
905,2020-04-10 17:43:14.140625,42.33
906,2020-04-10 17:43:14.156250,39.23
907,2020-04-10 17:43:14.171875,37.95
908,2020-04-10 17:43:14.187500,38.19
909,2020-04-10 17:43:14.203125,39.11
910,2020-04-10 17:43:14.218750,39.77
911,2020-04-10 17:43:14.234375,39.44
912,2020-04-10 17:43:14.250000,37.9
913,2020-04-10 17:43:14.265625,35.32
914,2020-04-10 17:43:14.281250,32.1
915,2020-04-10 17:43:14.296875,28.54
916,2020-04-10 17:43:14.312500,24.78
917,2020-04-10 17:43:14.328125,20.76
918,2020-04-10 17:43:14.343750,16.36
919,2020-04-10 17:43:14.359375,11.54
920,2020-04-10 17:43:14.375000,6.41
921,2020-04-10 17:43:14.390625,1.21
922,2020-04-10 17:43:14.406250,-3.8
923,2020-04-10 17:43:14.421875,-8.47
924,2020-04-10 17:43:14.437500,-12.79
925,2020-04-10 17:43:14.453125,-16.88
926,2020-04-10 17:43:14.468750,-20.87
927,2020-04-10 17:43:14.484375,-24.81
928,2020-04-10 17:43:14.500000,-28.63
929,2020-04-10 17:43:14.515625,-32.22
930,2020-04-10 17:43:14.531250,-35.51
931,2020-04-10 17:43:14.546875,-38.68
932,2020-04-10 17:43:14.562500,-42.19
933,2020-04-10 17:43:14.578125,-46.66
934,2020-04-10 17:43:14.593750,-52.58
935,2020-04-10 17:43:14.609375,-59.89
936,2020-04-10 17:43:14.625000,-67.66
937,2020-04-10 17:43:14.640625,-74.1
938,2020-04-10 17:43:14.656250,-76.99
939,2020-04-10 17:43:14.671875,-74.39
940,2020-04-10 17:43:14.687500,-65.41
941,2020-04-10 17:43:14.703125,-50.61
942,2020-04-10 17:43:14.718750,-31.86
943,2020-04-10 17:43:14.734375,-11.78
944,2020-04-10 17:43:14.750000,7.16
945,2020-04-10 17:43:14.765625,23.24
946,2020-04-10 17:43:14.781250,35.7
947,2020-04-10 17:43:14.796875,44.53
948,2020-04-10 17:43:14.812500,50.02
949,2020-04-10 17:43:14.828125,52.44
950,2020-04-10 17:43:14.843750,51.97
951,2020-04-10 17:43:14.859375,48.96
952,2020-04-10 17:43:14.875000,44.14
953,2020-04-10 17:43:14.890625,38.68
954,2020-04-10 17:43:14.906250,33.94
955,2020-04-10 17:43:14.921875,30.99
956,2020-04-10 17:43:14.937500,30.23
957,2020-04-10 17:43:14.953125,31.23
958,2020-04-10 17:43:14.968750,32.97
959,2020-04-10 17:43:14.984375,34.3
960,2020-04-10 17:43:15.000000,34.37
961,2020-04-10 17:43:15.015625,32.94
962,2020-04-10 17:43:15.031250,30.24
963,2020-04-10 17:43:15.046875,26.81
964,2020-04-10 17:43:15.062500,23.07
965,2020-04-10 17:43:15.078125,19.23
966,2020-04-10 17:43:15.093750,15.23
967,2020-04-10 17:43:15.109375,10.94
968,2020-04-10 17:43:15.125000,6.27
969,2020-04-10 17:43:15.140625,1.3
970,2020-04-10 17:43:15.156250,-3.76
971,2020-04-10 17:43:15.171875,-8.74
972,2020-04-10 17:43:15.187500,-13.45
973,2020-04-10 17:43:15.203125,-17.85
974,2020-04-10 17:43:15.218750,-21.92
975,2020-04-10 17:43:15.234375,-25.67
976,2020-04-10 17:43:15.250000,-29.12
977,2020-04-10 17:43:15.265625,-32.32
978,2020-04-10 17:43:15.281250,-35.47
979,2020-04-10 17:43:15.296875,-38.96
980,2020-04-10 17:43:15.312500,-43.31
981,2020-04-10 17:43:15.328125,-48.93
982,2020-04-10 17:43:15.343750,-55.79
983,2020-04-10 17:43:15.359375,-63.11
984,2020-04-10 17:43:15.375000,-69.29
985,2020-04-10 17:43:15.390625,-72.25
986,2020-04-10 17:43:15.406250,-70.07
987,2020-04-10 17:43:15.421875,-61.75
988,2020-04-10 17:43:15.437500,-47.65
989,2020-04-10 17:43:15.453125,-29.52
990,2020-04-10 17:43:15.468750,-9.89
991,2020-04-10 17:43:15.484375,8.72
992,2020-04-10 17:43:15.500000,24.5
993,2020-04-10 17:43:15.515625,36.71
994,2020-04-10 17:43:15.531250,45.38
995,2020-04-10 17:43:15.546875,50.9
996,2020-04-10 17:43:15.562500,53.59
997,2020-04-10 17:43:15.578125,53.61
998,2020-04-10 17:43:15.593750,51.16
999,2020-04-10 17:43:15.609375,46.81
1000,2020-04-10 17:43:15.625000,41.58
1001,2020-04-10 17:43:15.640625,36.76
1002,2020-04-10 17:43:15.656250,33.48
1003,2020-04-10 17:43:15.671875,32.2
1004,2020-04-10 17:43:15.687500,32.64
1005,2020-04-10 17:43:15.703125,33.85
1006,2020-04-10 17:43:15.718750,34.7
1007,2020-04-10 17:43:15.734375,34.35
1008,2020-04-10 17:43:15.750000,32.5
1009,2020-04-10 17:43:15.765625,29.41
1010,2020-04-10 17:43:15.781250,25.63
1011,2020-04-10 17:43:15.796875,21.67
1012,2020-04-10 17:43:15.812500,17.74
1013,2020-04-10 17:43:15.828125,13.71
1014,2020-04-10 17:43:15.843750,9.3
1015,2020-04-10 17:43:15.859375,4.28
1016,2020-04-10 17:43:15.875000,-1.33
1017,2020-04-10 17:43:15.890625,-7.23
1018,2020-04-10 17:43:15.906250,-12.95
1019,2020-04-10 17:43:15.921875,-18.13
1020,2020-04-10 17:43:15.937500,-22.58
1021,2020-04-10 17:43:15.953125,-26.34
1022,2020-04-10 17:43:15.968750,-29.64
1023,2020-04-10 17:43:15.984375,-32.7
1024,2020-04-10 17:43:16.000000,-35.74
1025,2020-04-10 17:43:16.015625,-38.94
1026,2020-04-10 17:43:16.031250,-42.61
1027,2020-04-10 17:43:16.046875,-47.18
1028,2020-04-10 17:43:16.062500,-53.06
1029,2020-04-10 17:43:16.078125,-60.28
1030,2020-04-10 17:43:16.093750,-68.08
1031,2020-04-10 17:43:16.109375,-74.83
1032,2020-04-10 17:43:16.125000,-78.24
1033,2020-04-10 17:43:16.140625,-76.19
1034,2020-04-10 17:43:16.156250,-67.49
1035,2020-04-10 17:43:16.171875,-52.56
1036,2020-04-10 17:43:16.187500,-33.3
1037,2020-04-10 17:43:16.203125,-12.55
1038,2020-04-10 17:43:16.218750,6.93
1039,2020-04-10 17:43:16.234375,23.27
1040,2020-04-10 17:43:16.250000,35.79
1041,2020-04-10 17:43:16.265625,44.71
1042,2020-04-10 17:43:16.281250,50.57
1043,2020-04-10 17:43:16.296875,53.76
1044,2020-04-10 17:43:16.312500,54.35
1045,2020-04-10 17:43:16.328125,52.43
1046,2020-04-10 17:43:16.343750,48.43
1047,2020-04-10 17:43:16.359375,43.35
1048,2020-04-10 17:43:16.375000,38.59
1049,2020-04-10 17:43:16.390625,35.43
1050,2020-04-10 17:43:16.406250,34.54
1051,2020-04-10 17:43:16.421875,35.73
1052,2020-04-10 17:43:16.437500,38.02
1053,2020-04-10 17:43:16.453125,40.12
1054,2020-04-10 17:43:16.468750,40.93
1055,2020-04-10 17:43:16.484375,39.97
1056,2020-04-10 17:43:16.500000,37.39
1057,2020-04-10 17:43:16.515625,33.79
1058,2020-04-10 17:43:16.531250,29.85
1059,2020-04-10 17:43:16.546875,25.98
1060,2020-04-10 17:43:16.562500,22.19
1061,2020-04-10 17:43:16.578125,18.2
1062,2020-04-10 17:43:16.593750,13.67
1063,2020-04-10 17:43:16.609375,8.42
1064,2020-04-10 17:43:16.625000,2.6
1065,2020-04-10 17:43:16.640625,-3.4
1066,2020-04-10 17:43:16.656250,-9.08
1067,2020-04-10 17:43:16.671875,-14.09
1068,2020-04-10 17:43:16.687500,-18.35
1069,2020-04-10 17:43:16.703125,-22.04
1070,2020-04-10 17:43:16.718750,-25.48
1071,2020-04-10 17:43:16.734375,-28.96
1072,2020-04-10 17:43:16.750000,-32.63
1073,2020-04-10 17:43:16.765625,-36.59
1074,2020-04-10 17:43:16.781250,-41.01
1075,2020-04-10 17:43:16.796875,-46.14
1076,2020-04-10 17:43:16.812500,-52.24
1077,2020-04-10 17:43:16.828125,-59.18
1078,2020-04-10 17:43:16.843750,-66.09
1079,2020-04-10 17:43:16.859375,-71.28
1080,2020-04-10 17:43:16.875000,-72.61
1081,2020-04-10 17:43:16.890625,-68.22
1082,2020-04-10 17:43:16.906250,-57.4
1083,2020-04-10 17:43:16.921875,-40.97
1084,2020-04-10 17:43:16.937500,-21.22
1085,2020-04-10 17:43:16.953125,-1.09
1086,2020-04-10 17:43:16.968750,16.82
1087,2020-04-10 17:43:16.984375,31.01
1088,2020-04-10 17:43:17.000000,41.21
1089,2020-04-10 17:43:17.015625,47.93
1090,2020-04-10 17:43:17.031250,51.88
1091,2020-04-10 17:43:17.046875,53.42
1092,2020-04-10 17:43:17.062500,52.63
1093,2020-04-10 17:43:17.078125,49.6
1094,2020-04-10 17:43:17.093750,44.88
1095,2020-04-10 17:43:17.109375,39.61
1096,2020-04-10 17:43:17.125000,35.19
1097,2020-04-10 17:43:17.140625,32.73
1098,2020-04-10 17:43:17.156250,32.57
1099,2020-04-10 17:43:17.171875,34.08
1100,2020-04-10 17:43:17.187500,35.98
1101,2020-04-10 17:43:17.203125,36.94
1102,2020-04-10 17:43:17.218750,36.14
1103,2020-04-10 17:43:17.234375,33.51
1104,2020-04-10 17:43:17.250000,29.6
1105,2020-04-10 17:43:17.265625,25.19
1106,2020-04-10 17:43:17.281250,20.87
1107,2020-04-10 17:43:17.296875,16.83
1108,2020-04-10 17:43:17.312500,12.92
1109,2020-04-10 17:43:17.328125,8.8
1110,2020-04-10 17:43:17.343750,4.21
1111,2020-04-10 17:43:17.359375,-0.92
1112,2020-04-10 17:43:17.375000,-6.41
1113,2020-04-10 17:43:17.390625,-11.99
1114,2020-04-10 17:43:17.406250,-17.34
1115,2020-04-10 17:43:17.421875,-22.26
1116,2020-04-10 17:43:17.437500,-26.64
1117,2020-04-10 17:43:17.453125,-30.52
1118,2020-04-10 17:43:17.468750,-34.0
1119,2020-04-10 17:43:17.484375,-37.22
1120,2020-04-10 17:43:17.500000,-40.38
1121,2020-04-10 17:43:17.515625,-43.71
1122,2020-04-10 17:43:17.531250,-47.57
1123,2020-04-10 17:43:17.546875,-52.33
1124,2020-04-10 17:43:17.562500,-58.29
1125,2020-04-10 17:43:17.578125,-65.31
1126,2020-04-10 17:43:17.593750,-72.58
1127,2020-04-10 17:43:17.609375,-78.5
1128,2020-04-10 17:43:17.625000,-81.06
1129,2020-04-10 17:43:17.640625,-78.39
1130,2020-04-10 17:43:17.656250,-69.63
1131,2020-04-10 17:43:17.671875,-55.35
1132,2020-04-10 17:43:17.687500,-37.52
1133,2020-04-10 17:43:17.703125,-18.85
1134,2020-04-10 17:43:17.718750,-1.97
1135,2020-04-10 17:43:17.734375,11.46
1136,2020-04-10 17:43:17.750000,20.87
1137,2020-04-10 17:43:17.765625,26.58
1138,2020-04-10 17:43:17.781250,29.27
1139,2020-04-10 17:43:17.796875,29.46
1140,2020-04-10 17:43:17.812500,27.5
1141,2020-04-10 17:43:17.828125,23.74
1142,2020-04-10 17:43:17.843750,18.88
1143,2020-04-10 17:43:17.859375,14.08
1144,2020-04-10 17:43:17.875000,10.74
1145,2020-04-10 17:43:17.890625,9.99
1146,2020-04-10 17:43:17.906250,12.25
1147,2020-04-10 17:43:17.921875,17.01
1148,2020-04-10 17:43:17.937500,23.05
1149,2020-04-10 17:43:17.953125,28.87
1150,2020-04-10 17:43:17.968750,33.31
1151,2020-04-10 17:43:17.984375,35.91
1152,2020-04-10 17:43:18.000000,36.89
1153,2020-04-10 17:43:18.015625,36.9
1154,2020-04-10 17:43:18.031250,36.55
1155,2020-04-10 17:43:18.046875,36.08
1156,2020-04-10 17:43:18.062500,35.21
1157,2020-04-10 17:43:18.078125,33.4
1158,2020-04-10 17:43:18.093750,30.17
1159,2020-04-10 17:43:18.109375,25.44
1160,2020-04-10 17:43:18.125000,19.61
1161,2020-04-10 17:43:18.140625,13.44
1162,2020-04-10 17:43:18.156250,7.66
1163,2020-04-10 17:43:18.171875,2.69
1164,2020-04-10 17:43:18.187500,-1.54
1165,2020-04-10 17:43:18.203125,-5.4
1166,2020-04-10 17:43:18.218750,-9.35
1167,2020-04-10 17:43:18.234375,-13.67
1168,2020-04-10 17:43:18.250000,-18.48
1169,2020-04-10 17:43:18.265625,-23.75
1170,2020-04-10 17:43:18.281250,-29.55
1171,2020-04-10 17:43:18.296875,-36.01
1172,2020-04-10 17:43:18.312500,-43.02
1173,2020-04-10 17:43:18.328125,-49.94
1174,2020-04-10 17:43:18.343750,-55.38
1175,2020-04-10 17:43:18.359375,-57.5
1176,2020-04-10 17:43:18.375000,-54.59
1177,2020-04-10 17:43:18.390625,-45.9
1178,2020-04-10 17:43:18.406250,-32.06
1179,2020-04-10 17:43:18.421875,-15.05
1180,2020-04-10 17:43:18.437500,2.52
1181,2020-04-10 17:43:18.453125,18.24
1182,2020-04-10 17:43:18.468750,30.67
1183,2020-04-10 17:43:18.484375,39.42
1184,2020-04-10 17:43:18.500000,44.82
1185,2020-04-10 17:43:18.515625,47.43
1186,2020-04-10 17:43:18.531250,47.6
1187,2020-04-10 17:43:18.546875,45.54
1188,2020-04-10 17:43:18.562500,41.54
1189,2020-04-10 17:43:18.578125,36.25
1190,2020-04-10 17:43:18.593750,30.79
1191,2020-04-10 17:43:18.609375,26.36
1192,2020-04-10 17:43:18.625000,23.8
1193,2020-04-10 17:43:18.640625,23.25
1194,2020-04-10 17:43:18.656250,24.07
1195,2020-04-10 17:43:18.671875,25.16
1196,2020-04-10 17:43:18.687500,25.49
1197,2020-04-10 17:43:18.703125,24.49
1198,2020-04-10 17:43:18.718750,22.24
1199,2020-04-10 17:43:18.734375,19.26
1200,2020-04-10 17:43:18.750000,16.13
1201,2020-04-10 17:43:18.765625,13.09
1202,2020-04-10 17:43:18.781250,9.97
1203,2020-04-10 17:43:18.796875,6.27
1204,2020-04-10 17:43:18.812500,1.52
1205,2020-04-10 17:43:18.828125,-4.35
1206,2020-04-10 17:43:18.843750,-10.91
1207,2020-04-10 17:43:18.859375,-17.37
1208,2020-04-10 17:43:18.875000,-22.92
1209,2020-04-10 17:43:18.890625,-27.09
1210,2020-04-10 17:43:18.906250,-29.97
1211,2020-04-10 17:43:18.921875,-32.16
1212,2020-04-10 17:43:18.937500,-34.52
1213,2020-04-10 17:43:18.953125,-37.83
1214,2020-04-10 17:43:18.968750,-42.56
1215,2020-04-10 17:43:18.984375,-48.69
1216,2020-04-10 17:43:19.000000,-55.68
1217,2020-04-10 17:43:19.015625,-62.43
1218,2020-04-10 17:43:19.031250,-67.48
1219,2020-04-10 17:43:19.046875,-69.25
1220,2020-04-10 17:43:19.062500,-66.43
1221,2020-04-10 17:43:19.078125,-58.46
1222,2020-04-10 17:43:19.093750,-45.75
1223,2020-04-10 17:43:19.109375,-29.67
1224,2020-04-10 17:43:19.125000,-12.13
1225,2020-04-10 17:43:19.140625,4.88
1226,2020-04-10 17:43:19.156250,19.83
1227,2020-04-10 17:43:19.171875,31.82
1228,2020-04-10 17:43:19.187500,40.53
1229,2020-04-10 17:43:19.203125,45.95
1230,2020-04-10 17:43:19.218750,48.2
1231,2020-04-10 17:43:19.234375,47.55
1232,2020-04-10 17:43:19.250000,44.52
1233,2020-04-10 17:43:19.265625,39.95
1234,2020-04-10 17:43:19.281250,34.96
1235,2020-04-10 17:43:19.296875,30.64
1236,2020-04-10 17:43:19.312500,27.75
1237,2020-04-10 17:43:19.328125,26.49
1238,2020-04-10 17:43:19.343750,26.55
1239,2020-04-10 17:43:19.359375,27.25
1240,2020-04-10 17:43:19.375000,27.86
1241,2020-04-10 17:43:19.390625,27.84
1242,2020-04-10 17:43:19.406250,26.91
1243,2020-04-10 17:43:19.421875,25.05
1244,2020-04-10 17:43:19.437500,22.39
1245,2020-04-10 17:43:19.453125,19.08
1246,2020-04-10 17:43:19.468750,15.25
1247,2020-04-10 17:43:19.484375,10.94
1248,2020-04-10 17:43:19.500000,6.12
1249,2020-04-10 17:43:19.515625,0.8
1250,2020-04-10 17:43:19.531250,-4.96
1251,2020-04-10 17:43:19.546875,-10.95
1252,2020-04-10 17:43:19.562500,-16.81
1253,2020-04-10 17:43:19.578125,-22.14
1254,2020-04-10 17:43:19.593750,-26.63
1255,2020-04-10 17:43:19.609375,-30.26
1256,2020-04-10 17:43:19.625000,-33.26
1257,2020-04-10 17:43:19.640625,-36.18
1258,2020-04-10 17:43:19.656250,-39.72
1259,2020-04-10 17:43:19.671875,-44.51
1260,2020-04-10 17:43:19.687500,-50.9
1261,2020-04-10 17:43:19.703125,-58.57
1262,2020-04-10 17:43:19.718750,-66.39
1263,2020-04-10 17:43:19.734375,-72.5
1264,2020-04-10 17:43:19.750000,-74.71
1265,2020-04-10 17:43:19.765625,-71.25
1266,2020-04-10 17:43:19.781250,-61.47
1267,2020-04-10 17:43:19.796875,-46.21
1268,2020-04-10 17:43:19.812500,-27.6
1269,2020-04-10 17:43:19.828125,-8.32
1270,2020-04-10 17:43:19.843750,9.24
1271,2020-04-10 17:43:19.859375,23.69
1272,2020-04-10 17:43:19.875000,34.66
1273,2020-04-10 17:43:19.890625,42.45
1274,2020-04-10 17:43:19.906250,47.46
1275,2020-04-10 17:43:19.921875,49.82
1276,2020-04-10 17:43:19.937500,49.54
1277,2020-04-10 17:43:19.953125,46.76
1278,2020-04-10 17:43:19.968750,42.21
1279,2020-04-10 17:43:19.984375,37.14
1280,2020-04-10 17:43:20.000000,32.97
1281,2020-04-10 17:43:20.015625,30.73
1282,2020-04-10 17:43:20.031250,30.6
1283,2020-04-10 17:43:20.046875,31.87
1284,2020-04-10 17:43:20.062500,33.3
1285,2020-04-10 17:43:20.078125,33.71
1286,2020-04-10 17:43:20.093750,32.5
1287,2020-04-10 17:43:20.109375,29.78
1288,2020-04-10 17:43:20.125000,26.22
1289,2020-04-10 17:43:20.140625,22.56
1290,2020-04-10 17:43:20.156250,19.15
1291,2020-04-10 17:43:20.171875,15.84
1292,2020-04-10 17:43:20.187500,12.13
1293,2020-04-10 17:43:20.203125,7.5
1294,2020-04-10 17:43:20.218750,1.8
1295,2020-04-10 17:43:20.234375,-4.64
1296,2020-04-10 17:43:20.250000,-11.08
1297,2020-04-10 17:43:20.265625,-16.77
1298,2020-04-10 17:43:20.281250,-21.26
1299,2020-04-10 17:43:20.296875,-24.56
1300,2020-04-10 17:43:20.312500,-27.14
1301,2020-04-10 17:43:20.328125,-29.71
1302,2020-04-10 17:43:20.343750,-32.9
1303,2020-04-10 17:43:20.359375,-37.15
1304,2020-04-10 17:43:20.375000,-42.63
1305,2020-04-10 17:43:20.390625,-49.15
1306,2020-04-10 17:43:20.406250,-56.16
1307,2020-04-10 17:43:20.421875,-62.62
1308,2020-04-10 17:43:20.437500,-67.06
1309,2020-04-10 17:43:20.453125,-67.79
1310,2020-04-10 17:43:20.468750,-63.41
1311,2020-04-10 17:43:20.484375,-53.32
1312,2020-04-10 17:43:20.500000,-38.14
1313,2020-04-10 17:43:20.515625,-19.66
1314,2020-04-10 17:43:20.531250,-0.34
1315,2020-04-10 17:43:20.546875,17.39
1316,2020-04-10 17:43:20.562500,31.82
1317,2020-04-10 17:43:20.578125,42.2
1318,2020-04-10 17:43:20.593750,48.68
1319,2020-04-10 17:43:20.609375,51.85
1320,2020-04-10 17:43:20.625000,52.4
1321,2020-04-10 17:43:20.640625,50.87
1322,2020-04-10 17:43:20.656250,47.76
1323,2020-04-10 17:43:20.671875,43.68
1324,2020-04-10 17:43:20.687500,39.39
1325,2020-04-10 17:43:20.703125,35.82
1326,2020-04-10 17:43:20.718750,33.66
1327,2020-04-10 17:43:20.734375,33.17
1328,2020-04-10 17:43:20.750000,34.01
1329,2020-04-10 17:43:20.765625,35.31
1330,2020-04-10 17:43:20.781250,36.07
1331,2020-04-10 17:43:20.796875,35.5
1332,2020-04-10 17:43:20.812500,33.4
1333,2020-04-10 17:43:20.828125,30.04
1334,2020-04-10 17:43:20.843750,26.09
1335,2020-04-10 17:43:20.859375,22.11
1336,2020-04-10 17:43:20.875000,18.35
1337,2020-04-10 17:43:20.890625,14.59
1338,2020-04-10 17:43:20.906250,10.37
1339,2020-04-10 17:43:20.921875,5.29
1340,2020-04-10 17:43:20.937500,-0.72
1341,2020-04-10 17:43:20.953125,-7.21
1342,2020-04-10 17:43:20.968750,-13.46
1343,2020-04-10 17:43:20.984375,-18.72
1344,2020-04-10 17:43:21.000000,-22.63
1345,2020-04-10 17:43:21.015625,-25.37
1346,2020-04-10 17:43:21.031250,-27.66
1347,2020-04-10 17:43:21.046875,-30.45
1348,2020-04-10 17:43:21.062500,-34.57
1349,2020-04-10 17:43:21.078125,-40.44
1350,2020-04-10 17:43:21.093750,-47.83
1351,2020-04-10 17:43:21.109375,-55.93
1352,2020-04-10 17:43:21.125000,-63.39
1353,2020-04-10 17:43:21.140625,-68.59
1354,2020-04-10 17:43:21.156250,-70.01
1355,2020-04-10 17:43:21.171875,-66.58
1356,2020-04-10 17:43:21.187500,-57.96
1357,2020-04-10 17:43:21.203125,-44.72
1358,2020-04-10 17:43:21.218750,-28.23
1359,2020-04-10 17:43:21.234375,-10.35
1360,2020-04-10 17:43:21.250000,7.0
1361,2020-04-10 17:43:21.265625,22.23
1362,2020-04-10 17:43:21.281250,34.22
1363,2020-04-10 17:43:21.296875,42.38
1364,2020-04-10 17:43:21.312500,46.57
1365,2020-04-10 17:43:21.328125,47.05
1366,2020-04-10 17:43:21.343750,44.48
1367,2020-04-10 17:43:21.359375,39.84
1368,2020-04-10 17:43:21.375000,34.38
1369,2020-04-10 17:43:21.390625,29.31
1370,2020-04-10 17:43:21.406250,25.51
1371,2020-04-10 17:43:21.421875,23.32
1372,2020-04-10 17:43:21.437500,22.55
1373,2020-04-10 17:43:21.453125,22.67
1374,2020-04-10 17:43:21.468750,23.01
1375,2020-04-10 17:43:21.484375,23.08
1376,2020-04-10 17:43:21.500000,22.62
1377,2020-04-10 17:43:21.515625,21.55
1378,2020-04-10 17:43:21.531250,19.85
1379,2020-04-10 17:43:21.546875,17.41
1380,2020-04-10 17:43:21.562500,14.1
1381,2020-04-10 17:43:21.578125,9.8
1382,2020-04-10 17:43:21.593750,4.54
1383,2020-04-10 17:43:21.609375,-1.39
1384,2020-04-10 17:43:21.625000,-7.5
1385,2020-04-10 17:43:21.640625,-13.24
1386,2020-04-10 17:43:21.656250,-18.16
1387,2020-04-10 17:43:21.671875,-22.12
1388,2020-04-10 17:43:21.687500,-25.28
1389,2020-04-10 17:43:21.703125,-28.06
1390,2020-04-10 17:43:21.718750,-30.96
1391,2020-04-10 17:43:21.734375,-34.46
1392,2020-04-10 17:43:21.750000,-38.92
1393,2020-04-10 17:43:21.765625,-44.47
1394,2020-04-10 17:43:21.781250,-50.98
1395,2020-04-10 17:43:21.796875,-57.79
1396,2020-04-10 17:43:21.812500,-63.68
1397,2020-04-10 17:43:21.828125,-66.95
1398,2020-04-10 17:43:21.843750,-65.83
1399,2020-04-10 17:43:21.859375,-59.13
1400,2020-04-10 17:43:21.875000,-46.75
1401,2020-04-10 17:43:21.890625,-29.93
1402,2020-04-10 17:43:21.906250,-10.9
1403,2020-04-10 17:43:21.921875,7.76
1404,2020-04-10 17:43:21.937500,23.89
1405,2020-04-10 17:43:21.953125,36.24
1406,2020-04-10 17:43:21.968750,44.54
1407,2020-04-10 17:43:21.984375,49.14
1408,2020-04-10 17:43:22.000000,50.68
1409,2020-04-10 17:43:22.015625,49.73
1410,2020-04-10 17:43:22.031250,46.85
1411,2020-04-10 17:43:22.046875,42.62
1412,2020-04-10 17:43:22.062500,37.8
1413,2020-04-10 17:43:22.078125,33.26
1414,2020-04-10 17:43:22.093750,29.8
1415,2020-04-10 17:43:22.109375,27.82
1416,2020-04-10 17:43:22.125000,27.22
1417,2020-04-10 17:43:22.140625,27.4
1418,2020-04-10 17:43:22.156250,27.54
1419,2020-04-10 17:43:22.171875,26.94
1420,2020-04-10 17:43:22.187500,25.25
1421,2020-04-10 17:43:22.203125,22.53
1422,2020-04-10 17:43:22.218750,19.08
1423,2020-04-10 17:43:22.234375,15.17
1424,2020-04-10 17:43:22.250000,10.88
1425,2020-04-10 17:43:22.265625,6.09
1426,2020-04-10 17:43:22.281250,0.65
1427,2020-04-10 17:43:22.296875,-5.43
1428,2020-04-10 17:43:22.312500,-11.87
1429,2020-04-10 17:43:22.328125,-18.18
1430,2020-04-10 17:43:22.343750,-23.85
1431,2020-04-10 17:43:22.359375,-28.61
1432,2020-04-10 17:43:22.375000,-32.52
1433,2020-04-10 17:43:22.390625,-36.06
1434,2020-04-10 17:43:22.406250,-39.96
1435,2020-04-10 17:43:22.421875,-44.96
1436,2020-04-10 17:43:22.437500,-51.43
1437,2020-04-10 17:43:22.453125,-59.01
1438,2020-04-10 17:43:22.468750,-66.41
1439,2020-04-10 17:43:22.484375,-71.61
1440,2020-04-10 17:43:22.500000,-72.37
1441,2020-04-10 17:43:22.515625,-67.1
1442,2020-04-10 17:43:22.531250,-55.51
1443,2020-04-10 17:43:22.546875,-38.8
1444,2020-04-10 17:43:22.562500,-19.33
1445,2020-04-10 17:43:22.578125,0.26
1446,2020-04-10 17:43:22.593750,17.84
1447,2020-04-10 17:43:22.609375,32.28
1448,2020-04-10 17:43:22.625000,43.3
1449,2020-04-10 17:43:22.640625,51.06
1450,2020-04-10 17:43:22.656250,55.68
1451,2020-04-10 17:43:22.671875,57.16
1452,2020-04-10 17:43:22.687500,55.61
1453,2020-04-10 17:43:22.703125,51.61
1454,2020-04-10 17:43:22.718750,46.31
1455,2020-04-10 17:43:22.734375,41.21
1456,2020-04-10 17:43:22.750000,37.62
1457,2020-04-10 17:43:22.765625,36.09
1458,2020-04-10 17:43:22.781250,36.3
1459,2020-04-10 17:43:22.796875,37.21
1460,2020-04-10 17:43:22.812500,37.64
1461,2020-04-10 17:43:22.828125,36.81
1462,2020-04-10 17:43:22.843750,34.53
1463,2020-04-10 17:43:22.859375,31.21
1464,2020-04-10 17:43:22.875000,27.48
1465,2020-04-10 17:43:22.890625,23.76
1466,2020-04-10 17:43:22.906250,20.08
1467,2020-04-10 17:43:22.921875,16.04
1468,2020-04-10 17:43:22.937500,11.2
1469,2020-04-10 17:43:22.953125,5.31
1470,2020-04-10 17:43:22.968750,-1.44
1471,2020-04-10 17:43:22.984375,-8.44
1472,2020-04-10 17:43:23.000000,-14.93
1473,2020-04-10 17:43:23.015625,-20.36
1474,2020-04-10 17:43:23.031250,-24.67
1475,2020-04-10 17:43:23.046875,-28.23
1476,2020-04-10 17:43:23.062500,-31.76
1477,2020-04-10 17:43:23.078125,-35.96
1478,2020-04-10 17:43:23.093750,-41.36
1479,2020-04-10 17:43:23.109375,-48.11
1480,2020-04-10 17:43:23.125000,-55.91
1481,2020-04-10 17:43:23.140625,-63.94
1482,2020-04-10 17:43:23.156250,-70.84
1483,2020-04-10 17:43:23.171875,-74.86
1484,2020-04-10 17:43:23.187500,-74.2
1485,2020-04-10 17:43:23.203125,-67.65
1486,2020-04-10 17:43:23.218750,-55.0
1487,2020-04-10 17:43:23.234375,-37.38
1488,2020-04-10 17:43:23.250000,-16.93
1489,2020-04-10 17:43:23.265625,3.73
1490,2020-04-10 17:43:23.281250,22.29
1491,2020-04-10 17:43:23.296875,37.21
1492,2020-04-10 17:43:23.312500,47.9
1493,2020-04-10 17:43:23.328125,54.51
1494,2020-04-10 17:43:23.343750,57.55
1495,2020-04-10 17:43:23.359375,57.63
1496,2020-04-10 17:43:23.375000,55.34
1497,2020-04-10 17:43:23.390625,51.39
1498,2020-04-10 17:43:23.406250,46.66
1499,2020-04-10 17:43:23.421875,42.15
1500,2020-04-10 17:43:23.437500,38.78
1501,2020-04-10 17:43:23.453125,37.09
1502,2020-04-10 17:43:23.468750,37.0
1503,2020-04-10 17:43:23.484375,37.87
1504,2020-04-10 17:43:23.500000,38.75
1505,2020-04-10 17:43:23.515625,38.72
1506,2020-04-10 17:43:23.531250,37.27
1507,2020-04-10 17:43:23.546875,34.39
1508,2020-04-10 17:43:23.562500,30.48
1509,2020-04-10 17:43:23.578125,26.1
1510,2020-04-10 17:43:23.593750,21.67
1511,2020-04-10 17:43:23.609375,17.31
1512,2020-04-10 17:43:23.625000,12.86
1513,2020-04-10 17:43:23.640625,8.02
1514,2020-04-10 17:43:23.656250,2.55
1515,2020-04-10 17:43:23.671875,-3.54
1516,2020-04-10 17:43:23.687500,-9.94
1517,2020-04-10 17:43:23.703125,-16.13
1518,2020-04-10 17:43:23.718750,-21.57
1519,2020-04-10 17:43:23.734375,-25.91
1520,2020-04-10 17:43:23.750000,-29.19
1521,2020-04-10 17:43:23.765625,-31.86
1522,2020-04-10 17:43:23.781250,-34.66
1523,2020-04-10 17:43:23.796875,-38.43
1524,2020-04-10 17:43:23.812500,-43.81
1525,2020-04-10 17:43:23.828125,-50.96
1526,2020-04-10 17:43:23.843750,-59.34
1527,2020-04-10 17:43:23.859375,-67.61
1528,2020-04-10 17:43:23.875000,-73.79
1529,2020-04-10 17:43:23.890625,-75.73
1530,2020-04-10 17:43:23.906250,-71.75
1531,2020-04-10 17:43:23.921875,-61.25
1532,2020-04-10 17:43:23.937500,-45.01
1533,2020-04-10 17:43:23.953125,-25.01
1534,2020-04-10 17:43:23.968750,-3.82
1535,2020-04-10 17:43:23.984375,16.1
1536,2020-04-10 17:43:24.000000,33.03
1537,2020-04-10 17:43:24.015625,46.14
1538,2020-04-10 17:43:24.031250,55.23
1539,2020-04-10 17:43:24.046875,60.47
1540,2020-04-10 17:43:24.062500,62.12
1541,2020-04-10 17:43:24.078125,60.55
1542,2020-04-10 17:43:24.093750,56.44
1543,2020-04-10 17:43:24.109375,50.86
1544,2020-04-10 17:43:24.125000,45.18
1545,2020-04-10 17:43:24.140625,40.66
1546,2020-04-10 17:43:24.156250,38.07
1547,2020-04-10 17:43:24.171875,37.44
1548,2020-04-10 17:43:24.187500,38.12
1549,2020-04-10 17:43:24.203125,39.1
1550,2020-04-10 17:43:24.218750,39.44
1551,2020-04-10 17:43:24.234375,38.65
1552,2020-04-10 17:43:24.250000,36.67
1553,2020-04-10 17:43:24.265625,33.82
1554,2020-04-10 17:43:24.281250,30.46
1555,2020-04-10 17:43:24.296875,26.84
1556,2020-04-10 17:43:24.312500,22.96
1557,2020-04-10 17:43:24.328125,18.68
1558,2020-04-10 17:43:24.343750,13.86
1559,2020-04-10 17:43:24.359375,8.5
1560,2020-04-10 17:43:24.375000,2.77
1561,2020-04-10 17:43:24.390625,-3.01
1562,2020-04-10 17:43:24.406250,-8.5
1563,2020-04-10 17:43:24.421875,-13.47
1564,2020-04-10 17:43:24.437500,-17.86
1565,2020-04-10 17:43:24.453125,-21.75
1566,2020-04-10 17:43:24.468750,-25.33
1567,2020-04-10 17:43:24.484375,-28.81
1568,2020-04-10 17:43:24.500000,-32.42
1569,2020-04-10 17:43:24.515625,-36.47
1570,2020-04-10 17:43:24.531250,-41.38
1571,2020-04-10 17:43:24.546875,-47.52
1572,2020-04-10 17:43:24.562500,-54.94
1573,2020-04-10 17:43:24.578125,-62.93
1574,2020-04-10 17:43:24.593750,-69.91
1575,2020-04-10 17:43:24.609375,-73.65
1576,2020-04-10 17:43:24.625000,-72.01
1577,2020-04-10 17:43:24.640625,-63.75
1578,2020-04-10 17:43:24.656250,-49.21
1579,2020-04-10 17:43:24.671875,-30.22
1580,2020-04-10 17:43:24.687500,-9.54
1581,2020-04-10 17:43:24.703125,10.08
1582,2020-04-10 17:43:24.718750,26.71
1583,2020-04-10 17:43:24.734375,39.46
1584,2020-04-10 17:43:24.750000,48.32
1585,2020-04-10 17:43:24.765625,53.58
1586,2020-04-10 17:43:24.781250,55.52
1587,2020-04-10 17:43:24.796875,54.3
1588,2020-04-10 17:43:24.812500,50.28
1589,2020-04-10 17:43:24.828125,44.31
1590,2020-04-10 17:43:24.843750,37.79
1591,2020-04-10 17:43:24.859375,32.29
1592,2020-04-10 17:43:24.875000,28.98
1593,2020-04-10 17:43:24.890625,28.19
1594,2020-04-10 17:43:24.906250,29.24
1595,2020-04-10 17:43:24.921875,30.8
1596,2020-04-10 17:43:24.937500,31.51
1597,2020-04-10 17:43:24.953125,30.6
1598,2020-04-10 17:43:24.968750,28.09
1599,2020-04-10 17:43:24.984375,24.65
1600,2020-04-10 17:43:25.000000,21.07
1601,2020-04-10 17:43:25.015625,17.79
1602,2020-04-10 17:43:25.031250,14.65
1603,2020-04-10 17:43:25.046875,11.05
1604,2020-04-10 17:43:25.062500,6.36
1605,2020-04-10 17:43:25.078125,0.37
1606,2020-04-10 17:43:25.093750,-6.53
1607,2020-04-10 17:43:25.109375,-13.5
1608,2020-04-10 17:43:25.125000,-19.57
1609,2020-04-10 17:43:25.140625,-24.11
1610,2020-04-10 17:43:25.156250,-27.1
1611,2020-04-10 17:43:25.171875,-29.15
1612,2020-04-10 17:43:25.187500,-31.18
1613,2020-04-10 17:43:25.203125,-34.12
1614,2020-04-10 17:43:25.218750,-38.58
1615,2020-04-10 17:43:25.234375,-44.62
1616,2020-04-10 17:43:25.250000,-51.76
1617,2020-04-10 17:43:25.265625,-59.0
1618,2020-04-10 17:43:25.281250,-64.93
1619,2020-04-10 17:43:25.296875,-67.92
1620,2020-04-10 17:43:25.312500,-66.47
1621,2020-04-10 17:43:25.328125,-59.59
1622,2020-04-10 17:43:25.343750,-47.22
1623,2020-04-10 17:43:25.359375,-30.38
1624,2020-04-10 17:43:25.375000,-11.07
1625,2020-04-10 17:43:25.390625,8.29
1626,2020-04-10 17:43:25.406250,25.45
1627,2020-04-10 17:43:25.421875,38.87
1628,2020-04-10 17:43:25.437500,47.96
1629,2020-04-10 17:43:25.453125,52.88
1630,2020-04-10 17:43:25.468750,54.23
1631,2020-04-10 17:43:25.484375,52.76
1632,2020-04-10 17:43:25.500000,49.16
1633,2020-04-10 17:43:25.515625,44.17
1634,2020-04-10 17:43:25.531250,38.63
1635,2020-04-10 17:43:25.546875,33.45
1636,2020-04-10 17:43:25.562500,29.46
1637,2020-04-10 17:43:25.578125,27.13
1638,2020-04-10 17:43:25.593750,26.45
1639,2020-04-10 17:43:25.609375,26.89
1640,2020-04-10 17:43:25.625000,27.6
1641,2020-04-10 17:43:25.640625,27.75
1642,2020-04-10 17:43:25.656250,26.79
1643,2020-04-10 17:43:25.671875,24.6
1644,2020-04-10 17:43:25.687500,21.41
1645,2020-04-10 17:43:25.703125,17.61
1646,2020-04-10 17:43:25.718750,13.54
1647,2020-04-10 17:43:25.734375,9.32
1648,2020-04-10 17:43:25.750000,4.84
1649,2020-04-10 17:43:25.765625,-0.13
1650,2020-04-10 17:43:25.781250,-5.75
1651,2020-04-10 17:43:25.796875,-11.96
1652,2020-04-10 17:43:25.812500,-18.4
1653,2020-04-10 17:43:25.828125,-24.5
1654,2020-04-10 17:43:25.843750,-29.69
1655,2020-04-10 17:43:25.859375,-33.65
1656,2020-04-10 17:43:25.875000,-36.47
1657,2020-04-10 17:43:25.890625,-38.69
1658,2020-04-10 17:43:25.906250,-41.19
1659,2020-04-10 17:43:25.921875,-44.88
1660,2020-04-10 17:43:25.937500,-50.38
1661,2020-04-10 17:43:25.953125,-57.63
1662,2020-04-10 17:43:25.968750,-65.74
1663,2020-04-10 17:43:25.984375,-73.0
1664,2020-04-10 17:43:26.000000,-77.24
1665,2020-04-10 17:43:26.015625,-76.41
1666,2020-04-10 17:43:26.031250,-69.25
1667,2020-04-10 17:43:26.046875,-55.8
1668,2020-04-10 17:43:26.062500,-37.47
1669,2020-04-10 17:43:26.078125,-16.68
1670,2020-04-10 17:43:26.093750,3.93
1671,2020-04-10 17:43:26.109375,22.16
1672,2020-04-10 17:43:26.125000,36.75
1673,2020-04-10 17:43:26.140625,47.35
1674,2020-04-10 17:43:26.156250,54.2
1675,2020-04-10 17:43:26.171875,57.64
1676,2020-04-10 17:43:26.187500,57.96
1677,2020-04-10 17:43:26.203125,55.5
1678,2020-04-10 17:43:26.218750,50.89
1679,2020-04-10 17:43:26.234375,45.2
1680,2020-04-10 17:43:26.250000,39.81
1681,2020-04-10 17:43:26.265625,35.97
1682,2020-04-10 17:43:26.281250,34.32
1683,2020-04-10 17:43:26.296875,34.65
1684,2020-04-10 17:43:26.312500,36.0
1685,2020-04-10 17:43:26.328125,37.16
1686,2020-04-10 17:43:26.343750,37.13
1687,2020-04-10 17:43:26.359375,35.49
1688,2020-04-10 17:43:26.375000,32.45
1689,2020-04-10 17:43:26.390625,28.51
1690,2020-04-10 17:43:26.406250,24.23
1691,2020-04-10 17:43:26.421875,19.91
1692,2020-04-10 17:43:26.437500,15.58
1693,2020-04-10 17:43:26.453125,11.06
1694,2020-04-10 17:43:26.468750,6.15
1695,2020-04-10 17:43:26.484375,0.76
1696,2020-04-10 17:43:26.500000,-5.0
1697,2020-04-10 17:43:26.515625,-10.89
1698,2020-04-10 17:43:26.531250,-16.55
1699,2020-04-10 17:43:26.546875,-21.66
1700,2020-04-10 17:43:26.562500,-25.98
1701,2020-04-10 17:43:26.578125,-29.47
1702,2020-04-10 17:43:26.593750,-32.27
1703,2020-04-10 17:43:26.609375,-34.76
1704,2020-04-10 17:43:26.625000,-37.42
1705,2020-04-10 17:43:26.640625,-40.82
1706,2020-04-10 17:43:26.656250,-45.5
1707,2020-04-10 17:43:26.671875,-51.69
1708,2020-04-10 17:43:26.687500,-59.08
1709,2020-04-10 17:43:26.703125,-66.59
1710,2020-04-10 17:43:26.718750,-72.34
1711,2020-04-10 17:43:26.734375,-74.08
1712,2020-04-10 17:43:26.750000,-69.91
1713,2020-04-10 17:43:26.765625,-59.03
1714,2020-04-10 17:43:26.781250,-42.22
1715,2020-04-10 17:43:26.796875,-21.69
1716,2020-04-10 17:43:26.812500,-0.45
1717,2020-04-10 17:43:26.828125,18.74
1718,2020-04-10 17:43:26.843750,34.1
1719,2020-04-10 17:43:26.859375,45.08
1720,2020-04-10 17:43:26.875000,52.0
1721,2020-04-10 17:43:26.890625,55.54
1722,2020-04-10 17:43:26.906250,56.2
1723,2020-04-10 17:43:26.921875,54.3
1724,2020-04-10 17:43:26.937500,50.22
1725,2020-04-10 17:43:26.953125,44.67
1726,2020-04-10 17:43:26.968750,38.83
1727,2020-04-10 17:43:26.984375,34.02
1728,2020-04-10 17:43:27.000000,31.25
1729,2020-04-10 17:43:27.015625,30.8
1730,2020-04-10 17:43:27.031250,32.1
1731,2020-04-10 17:43:27.046875,33.98
1732,2020-04-10 17:43:27.062500,35.17
1733,2020-04-10 17:43:27.078125,34.79
1734,2020-04-10 17:43:27.093750,32.65
1735,2020-04-10 17:43:27.109375,29.19
1736,2020-04-10 17:43:27.125000,25.14
1737,2020-04-10 17:43:27.140625,21.16
1738,2020-04-10 17:43:27.156250,17.51
1739,2020-04-10 17:43:27.171875,13.98
1740,2020-04-10 17:43:27.187500,10.09
1741,2020-04-10 17:43:27.203125,5.45
1742,2020-04-10 17:43:27.218750,-0.06
1743,2020-04-10 17:43:27.234375,-6.09
1744,2020-04-10 17:43:27.250000,-12.05
1745,2020-04-10 17:43:27.265625,-17.35
1746,2020-04-10 17:43:27.281250,-21.65
1747,2020-04-10 17:43:27.296875,-25.0
1748,2020-04-10 17:43:27.312500,-27.74
1749,2020-04-10 17:43:27.328125,-30.36
1750,2020-04-10 17:43:27.343750,-33.28
1751,2020-04-10 17:43:27.359375,-36.78
1752,2020-04-10 17:43:27.375000,-41.05
1753,2020-04-10 17:43:27.390625,-46.22
1754,2020-04-10 17:43:27.406250,-52.37
1755,2020-04-10 17:43:27.421875,-59.27
1756,2020-04-10 17:43:27.437500,-66.09
1757,2020-04-10 17:43:27.453125,-71.32
1758,2020-04-10 17:43:27.468750,-72.94
1759,2020-04-10 17:43:27.484375,-69.12
1760,2020-04-10 17:43:27.500000,-58.95
1761,2020-04-10 17:43:27.515625,-43.05
1762,2020-04-10 17:43:27.531250,-23.51
1763,2020-04-10 17:43:27.546875,-3.23
1764,2020-04-10 17:43:27.562500,15.03
1765,2020-04-10 17:43:27.578125,29.5
1766,2020-04-10 17:43:27.593750,39.65
1767,2020-04-10 17:43:27.609375,45.92
1768,2020-04-10 17:43:27.625000,49.01
1769,2020-04-10 17:43:27.640625,49.46
1770,2020-04-10 17:43:27.656250,47.51
1771,2020-04-10 17:43:27.671875,43.4
1772,2020-04-10 17:43:27.687500,37.78
1773,2020-04-10 17:43:27.703125,31.8
1774,2020-04-10 17:43:27.718750,26.87
1775,2020-04-10 17:43:27.734375,24.07
1776,2020-04-10 17:43:27.750000,23.69
1777,2020-04-10 17:43:27.765625,25.08
1778,2020-04-10 17:43:27.781250,26.94
1779,2020-04-10 17:43:27.796875,27.97
1780,2020-04-10 17:43:27.812500,27.4
1781,2020-04-10 17:43:27.828125,25.25
1782,2020-04-10 17:43:27.843750,22.12
1783,2020-04-10 17:43:27.859375,18.76
1784,2020-04-10 17:43:27.875000,15.64
1785,2020-04-10 17:43:27.890625,12.65
1786,2020-04-10 17:43:27.906250,9.32
1787,2020-04-10 17:43:27.921875,5.11
1788,2020-04-10 17:43:27.937500,-0.18
1789,2020-04-10 17:43:27.953125,-6.22
1790,2020-04-10 17:43:27.968750,-12.29
1791,2020-04-10 17:43:27.984375,-17.6
1792,2020-04-10 17:43:28.000000,-21.67
1793,2020-04-10 17:43:28.015625,-24.53
1794,2020-04-10 17:43:28.031250,-26.69
1795,2020-04-10 17:43:28.046875,-28.93
1796,2020-04-10 17:43:28.062500,-32.0
1797,2020-04-10 17:43:28.078125,-36.42
1798,2020-04-10 17:43:28.093750,-42.33
1799,2020-04-10 17:43:28.109375,-49.39
1800,2020-04-10 17:43:28.125000,-56.7
1801,2020-04-10 17:43:28.140625,-62.82
1802,2020-04-10 17:43:28.156250,-65.99
1803,2020-04-10 17:43:28.171875,-64.59
1804,2020-04-10 17:43:28.187500,-57.64
1805,2020-04-10 17:43:28.203125,-45.22
1806,2020-04-10 17:43:28.218750,-28.59
1807,2020-04-10 17:43:28.234375,-9.85
1808,2020-04-10 17:43:28.250000,8.66
1809,2020-04-10 17:43:28.265625,24.94
1810,2020-04-10 17:43:28.281250,37.7
1811,2020-04-10 17:43:28.296875,46.38
1812,2020-04-10 17:43:28.312500,50.94
1813,2020-04-10 17:43:28.328125,51.74
1814,2020-04-10 17:43:28.343750,49.34
1815,2020-04-10 17:43:28.359375,44.62
1816,2020-04-10 17:43:28.375000,38.69
1817,2020-04-10 17:43:28.390625,32.77
1818,2020-04-10 17:43:28.406250,27.88
1819,2020-04-10 17:43:28.421875,24.64
1820,2020-04-10 17:43:28.437500,23.06
1821,2020-04-10 17:43:28.453125,22.69
1822,2020-04-10 17:43:28.468750,22.86
1823,2020-04-10 17:43:28.484375,22.95
1824,2020-04-10 17:43:28.500000,22.59
1825,2020-04-10 17:43:28.515625,21.63
1826,2020-04-10 17:43:28.531250,20.04
1827,2020-04-10 17:43:28.546875,17.76
1828,2020-04-10 17:43:28.562500,14.66
1829,2020-04-10 17:43:28.578125,10.6
1830,2020-04-10 17:43:28.593750,5.54
1831,2020-04-10 17:43:28.609375,-0.38
1832,2020-04-10 17:43:28.625000,-6.8
1833,2020-04-10 17:43:28.640625,-13.25
1834,2020-04-10 17:43:28.656250,-19.27
1835,2020-04-10 17:43:28.671875,-24.52
1836,2020-04-10 17:43:28.687500,-28.91
1837,2020-04-10 17:43:28.703125,-32.56
1838,2020-04-10 17:43:28.718750,-35.76
1839,2020-04-10 17:43:28.734375,-38.91
1840,2020-04-10 17:43:28.750000,-42.47
1841,2020-04-10 17:43:28.765625,-46.92
1842,2020-04-10 17:43:28.781250,-52.56
1843,2020-04-10 17:43:28.796875,-59.28
1844,2020-04-10 17:43:28.812500,-66.29
1845,2020-04-10 17:43:28.828125,-72.0
1846,2020-04-10 17:43:28.843750,-74.29
1847,2020-04-10 17:43:28.859375,-71.16
1848,2020-04-10 17:43:28.875000,-61.53
1849,2020-04-10 17:43:28.890625,-45.83
1850,2020-04-10 17:43:28.906250,-26.03
1851,2020-04-10 17:43:28.921875,-5.11
1852,2020-04-10 17:43:28.937500,14.02
1853,2020-04-10 17:43:28.953125,29.37
1854,2020-04-10 17:43:28.968750,40.33
1855,2020-04-10 17:43:28.984375,47.34
1856,2020-04-10 17:43:29.000000,51.28
1857,2020-04-10 17:43:29.015625,52.82
1858,2020-04-10 17:43:29.031250,52.16
1859,2020-04-10 17:43:29.046875,49.31
1860,2020-04-10 17:43:29.062500,44.55
1861,2020-04-10 17:43:29.078125,38.73
1862,2020-04-10 17:43:29.093750,33.2
1863,2020-04-10 17:43:29.109375,29.36
1864,2020-04-10 17:43:29.125000,28.02
1865,2020-04-10 17:43:29.140625,29.02
1866,2020-04-10 17:43:29.156250,31.26
1867,2020-04-10 17:43:29.171875,33.22
1868,2020-04-10 17:43:29.187500,33.6
1869,2020-04-10 17:43:29.203125,31.85
1870,2020-04-10 17:43:29.218750,28.28
1871,2020-04-10 17:43:29.234375,23.77
1872,2020-04-10 17:43:29.250000,19.27
1873,2020-04-10 17:43:29.265625,15.26
1874,2020-04-10 17:43:29.281250,11.58
1875,2020-04-10 17:43:29.296875,7.58
1876,2020-04-10 17:43:29.312500,2.57
1877,2020-04-10 17:43:29.328125,-3.75
1878,2020-04-10 17:43:29.343750,-11.08
1879,2020-04-10 17:43:29.359375,-18.55
1880,2020-04-10 17:43:29.375000,-25.18
1881,2020-04-10 17:43:29.390625,-30.26
1882,2020-04-10 17:43:29.406250,-33.7
1883,2020-04-10 17:43:29.421875,-36.0
1884,2020-04-10 17:43:29.437500,-38.0
1885,2020-04-10 17:43:29.453125,-40.5
1886,2020-04-10 17:43:29.468750,-44.01
1887,2020-04-10 17:43:29.484375,-48.75
1888,2020-04-10 17:43:29.500000,-54.67
1889,2020-04-10 17:43:29.515625,-61.57
1890,2020-04-10 17:43:29.531250,-68.94
1891,2020-04-10 17:43:29.546875,-75.76
1892,2020-04-10 17:43:29.562500,-80.35
1893,2020-04-10 17:43:29.578125,-80.66
1894,2020-04-10 17:43:29.593750,-74.9
1895,2020-04-10 17:43:29.609375,-62.3
1896,2020-04-10 17:43:29.625000,-43.71
1897,2020-04-10 17:43:29.640625,-21.52
1898,2020-04-10 17:43:29.656250,1.05
1899,2020-04-10 17:43:29.671875,21.03
1900,2020-04-10 17:43:29.687500,36.49
1901,2020-04-10 17:43:29.703125,46.98
1902,2020-04-10 17:43:29.718750,53.1
1903,2020-04-10 17:43:29.734375,55.86
1904,2020-04-10 17:43:29.750000,56.16
1905,2020-04-10 17:43:29.765625,54.47
1906,2020-04-10 17:43:29.781250,51.13
1907,2020-04-10 17:43:29.796875,46.64
1908,2020-04-10 17:43:29.812500,41.82
1909,2020-04-10 17:43:29.828125,37.73
1910,2020-04-10 17:43:29.843750,35.28
1911,2020-04-10 17:43:29.859375,34.86
1912,2020-04-10 17:43:29.875000,36.13
1913,2020-04-10 17:43:29.890625,38.13
1914,2020-04-10 17:43:29.906250,39.63
1915,2020-04-10 17:43:29.921875,39.63
1916,2020-04-10 17:43:29.937500,37.67
1917,2020-04-10 17:43:29.953125,33.91
1918,2020-04-10 17:43:29.968750,29.03
1919,2020-04-10 17:43:29.984375,23.87
1920,2020-04-10 17:43:30.000000,19.09
1921,2020-04-10 17:43:30.015625,14.95
1922,2020-04-10 17:43:30.031250,11.22
1923,2020-04-10 17:43:30.046875,7.33
1924,2020-04-10 17:43:30.062500,2.75
1925,2020-04-10 17:43:30.078125,-2.76
1926,2020-04-10 17:43:30.093750,-8.94
1927,2020-04-10 17:43:30.109375,-15.09
1928,2020-04-10 17:43:30.125000,-20.44
1929,2020-04-10 17:43:30.140625,-24.5
1930,2020-04-10 17:43:30.156250,-27.31
1931,2020-04-10 17:43:30.171875,-29.4
1932,2020-04-10 17:43:30.187500,-31.55
1933,2020-04-10 17:43:30.203125,-34.43
1934,2020-04-10 17:43:30.218750,-38.41
1935,2020-04-10 17:43:30.234375,-43.59
1936,2020-04-10 17:43:30.250000,-49.85
1937,2020-04-10 17:43:30.265625,-56.97
1938,2020-04-10 17:43:30.281250,-64.42
1939,2020-04-10 17:43:30.296875,-71.12
1940,2020-04-10 17:43:30.312500,-75.35
1941,2020-04-10 17:43:30.328125,-75.05
1942,2020-04-10 17:43:30.343750,-68.55
1943,2020-04-10 17:43:30.359375,-55.33
1944,2020-04-10 17:43:30.375000,-36.49
1945,2020-04-10 17:43:30.390625,-14.55
1946,2020-04-10 17:43:30.406250,7.33
1947,2020-04-10 17:43:30.421875,26.33
1948,2020-04-10 17:43:30.437500,40.78
1949,2020-04-10 17:43:30.453125,50.3
1950,2020-04-10 17:43:30.468750,55.47
1951,2020-04-10 17:43:30.484375,57.16
1952,2020-04-10 17:43:30.500000,56.14
1953,2020-04-10 17:43:30.515625,52.92
1954,2020-04-10 17:43:30.531250,48.03
1955,2020-04-10 17:43:30.546875,42.22
1956,2020-04-10 17:43:30.562500,36.56
1957,2020-04-10 17:43:30.578125,32.18
1958,2020-04-10 17:43:30.593750,29.93
1959,2020-04-10 17:43:30.609375,29.95
1960,2020-04-10 17:43:30.625000,31.59
1961,2020-04-10 17:43:30.640625,33.7
1962,2020-04-10 17:43:30.656250,35.02
1963,2020-04-10 17:43:30.671875,34.68
1964,2020-04-10 17:43:30.687500,32.47
1965,2020-04-10 17:43:30.703125,28.8
1966,2020-04-10 17:43:30.718750,24.48
1967,2020-04-10 17:43:30.734375,20.24
1968,2020-04-10 17:43:30.750000,16.43
1969,2020-04-10 17:43:30.765625,12.91
1970,2020-04-10 17:43:30.781250,9.16
1971,2020-04-10 17:43:30.796875,4.64
1972,2020-04-10 17:43:30.812500,-0.89
1973,2020-04-10 17:43:30.828125,-7.19
1974,2020-04-10 17:43:30.843750,-13.57
1975,2020-04-10 17:43:30.859375,-19.2
1976,2020-04-10 17:43:30.875000,-23.52
1977,2020-04-10 17:43:30.890625,-26.45
1978,2020-04-10 17:43:30.906250,-28.48
1979,2020-04-10 17:43:30.921875,-30.46
1980,2020-04-10 17:43:30.937500,-33.17
1981,2020-04-10 17:43:30.953125,-37.17
1982,2020-04-10 17:43:30.968750,-42.6
1983,2020-04-10 17:43:30.984375,-49.23
1984,2020-04-10 17:43:31.000000,-56.49
1985,2020-04-10 17:43:31.015625,-63.41
1986,2020-04-10 17:43:31.031250,-68.63
1987,2020-04-10 17:43:31.046875,-70.53
1988,2020-04-10 17:43:31.062500,-67.57
1989,2020-04-10 17:43:31.078125,-58.87
1990,2020-04-10 17:43:31.093750,-44.6
1991,2020-04-10 17:43:31.109375,-26.17
1992,2020-04-10 17:43:31.125000,-5.9
1993,2020-04-10 17:43:31.140625,13.64
1994,2020-04-10 17:43:31.156250,30.29
1995,2020-04-10 17:43:31.171875,42.77
1996,2020-04-10 17:43:31.187500,50.68
1997,2020-04-10 17:43:31.203125,54.33
1998,2020-04-10 17:43:31.218750,54.34
1999,2020-04-10 17:43:31.234375,51.52
2000,2020-04-10 17:43:31.250000,46.75
2001,2020-04-10 17:43:31.265625,41.04
2002,2020-04-10 17:43:31.281250,35.47
2003,2020-04-10 17:43:31.296875,31.03
2004,2020-04-10 17:43:31.312500,28.39
2005,2020-04-10 17:43:31.328125,27.7
2006,2020-04-10 17:43:31.343750,28.55
2007,2020-04-10 17:43:31.359375,30.06
2008,2020-04-10 17:43:31.375000,31.21
2009,2020-04-10 17:43:31.390625,31.19
2010,2020-04-10 17:43:31.406250,29.64
2011,2020-04-10 17:43:31.421875,26.69
2012,2020-04-10 17:43:31.437500,22.84
2013,2020-04-10 17:43:31.453125,18.65
2014,2020-04-10 17:43:31.468750,14.48
2015,2020-04-10 17:43:31.484375,10.35
2016,2020-04-10 17:43:31.500000,5.99
2017,2020-04-10 17:43:31.515625,1.06
2018,2020-04-10 17:43:31.531250,-4.62
2019,2020-04-10 17:43:31.546875,-10.92
2020,2020-04-10 17:43:31.562500,-17.35
2021,2020-04-10 17:43:31.578125,-23.32
2022,2020-04-10 17:43:31.593750,-28.28
2023,2020-04-10 17:43:31.609375,-32.03
2024,2020-04-10 17:43:31.625000,-34.79
2025,2020-04-10 17:43:31.640625,-37.18
2026,2020-04-10 17:43:31.656250,-40.07
2027,2020-04-10 17:43:31.671875,-44.31
2028,2020-04-10 17:43:31.687500,-50.42
2029,2020-04-10 17:43:31.703125,-58.22
2030,2020-04-10 17:43:31.718750,-66.63
2031,2020-04-10 17:43:31.734375,-73.73
2032,2020-04-10 17:43:31.750000,-77.2
2033,2020-04-10 17:43:31.765625,-74.97
2034,2020-04-10 17:43:31.781250,-66.06
2035,2020-04-10 17:43:31.796875,-50.91
2036,2020-04-10 17:43:31.812500,-31.4
2037,2020-04-10 17:43:31.828125,-10.23
2038,2020-04-10 17:43:31.843750,9.94
2039,2020-04-10 17:43:31.859375,27.16
2040,2020-04-10 17:43:31.875000,40.49
2041,2020-04-10 17:43:31.890625,49.81
2042,2020-04-10 17:43:31.906250,55.32
2043,2020-04-10 17:43:31.921875,57.27
2044,2020-04-10 17:43:31.937500,55.86
2045,2020-04-10 17:43:31.953125,51.49
2046,2020-04-10 17:43:31.968750,45.07
2047,2020-04-10 17:43:31.984375,38.03
2048,2020-04-10 17:43:32.000000,32.01
2049,2020-04-10 17:43:32.015625,28.32
2050,2020-04-10 17:43:32.031250,27.42
2051,2020-04-10 17:43:32.046875,28.78
2052,2020-04-10 17:43:32.062500,31.13
2053,2020-04-10 17:43:32.078125,33.02
2054,2020-04-10 17:43:32.093750,33.39
2055,2020-04-10 17:43:32.109375,31.91
2056,2020-04-10 17:43:32.125000,28.94
2057,2020-04-10 17:43:32.140625,25.14
2058,2020-04-10 17:43:32.156250,21.13
2059,2020-04-10 17:43:32.171875,17.18
2060,2020-04-10 17:43:32.187500,13.19
2061,2020-04-10 17:43:32.203125,8.89
2062,2020-04-10 17:43:32.218750,4.04
2063,2020-04-10 17:43:32.234375,-1.42
2064,2020-04-10 17:43:32.250000,-7.29
2065,2020-04-10 17:43:32.265625,-13.22
2066,2020-04-10 17:43:32.281250,-18.84
2067,2020-04-10 17:43:32.296875,-23.86
2068,2020-04-10 17:43:32.312500,-28.15
2069,2020-04-10 17:43:32.328125,-31.79
2070,2020-04-10 17:43:32.343750,-34.97
2071,2020-04-10 17:43:32.359375,-37.99
2072,2020-04-10 17:43:32.375000,-41.25
2073,2020-04-10 17:43:32.390625,-45.18
2074,2020-04-10 17:43:32.406250,-50.29
2075,2020-04-10 17:43:32.421875,-56.91
2076,2020-04-10 17:43:32.437500,-64.92
2077,2020-04-10 17:43:32.453125,-73.39
2078,2020-04-10 17:43:32.468750,-80.42
2079,2020-04-10 17:43:32.484375,-83.5
2080,2020-04-10 17:43:32.500000,-80.26
2081,2020-04-10 17:43:32.515625,-69.47
2082,2020-04-10 17:43:32.531250,-51.64
2083,2020-04-10 17:43:32.546875,-29.08
2084,2020-04-10 17:43:32.562500,-5.14
2085,2020-04-10 17:43:32.578125,16.93
2086,2020-04-10 17:43:32.593750,34.91
2087,2020-04-10 17:43:32.609375,48.02
2088,2020-04-10 17:43:32.625000,56.58
2089,2020-04-10 17:43:32.640625,61.36
2090,2020-04-10 17:43:32.656250,63.0
2091,2020-04-10 17:43:32.671875,61.82
2092,2020-04-10 17:43:32.687500,58.13
2093,2020-04-10 17:43:32.703125,52.59
2094,2020-04-10 17:43:32.718750,46.39
2095,2020-04-10 17:43:32.734375,41.0
2096,2020-04-10 17:43:32.750000,37.65
2097,2020-04-10 17:43:32.765625,36.86
2098,2020-04-10 17:43:32.781250,38.21
2099,2020-04-10 17:43:32.796875,40.52
2100,2020-04-10 17:43:32.812500,42.43
2101,2020-04-10 17:43:32.828125,42.89
2102,2020-04-10 17:43:32.843750,41.5
2103,2020-04-10 17:43:32.859375,38.53
2104,2020-04-10 17:43:32.875000,34.57
2105,2020-04-10 17:43:32.890625,30.18
2106,2020-04-10 17:43:32.906250,25.67
2107,2020-04-10 17:43:32.921875,21.05
2108,2020-04-10 17:43:32.937500,16.21
2109,2020-04-10 17:43:32.953125,11.1
2110,2020-04-10 17:43:32.968750,5.83
2111,2020-04-10 17:43:32.984375,0.63
2112,2020-04-10 17:43:33.000000,-4.29
2113,2020-04-10 17:43:33.015625,-8.93
2114,2020-04-10 17:43:33.031250,-13.44
2115,2020-04-10 17:43:33.046875,-18.02
2116,2020-04-10 17:43:33.062500,-22.76
2117,2020-04-10 17:43:33.078125,-27.47
2118,2020-04-10 17:43:33.093750,-31.84
2119,2020-04-10 17:43:33.109375,-35.53
2120,2020-04-10 17:43:33.125000,-38.47
2121,2020-04-10 17:43:33.140625,-41.04
2122,2020-04-10 17:43:33.156250,-44.01
2123,2020-04-10 17:43:33.171875,-48.32
2124,2020-04-10 17:43:33.187500,-54.59
2125,2020-04-10 17:43:33.203125,-62.63
2126,2020-04-10 17:43:33.218750,-71.17
2127,2020-04-10 17:43:33.234375,-77.92
2128,2020-04-10 17:43:33.250000,-80.17
2129,2020-04-10 17:43:33.265625,-75.73
2130,2020-04-10 17:43:33.281250,-63.73
2131,2020-04-10 17:43:33.296875,-45.09
2132,2020-04-10 17:43:33.312500,-22.27
2133,2020-04-10 17:43:33.328125,1.47
2134,2020-04-10 17:43:33.343750,23.1
2135,2020-04-10 17:43:33.359375,40.57
2136,2020-04-10 17:43:33.375000,53.09
2137,2020-04-10 17:43:33.390625,60.88
2138,2020-04-10 17:43:33.406250,64.61
2139,2020-04-10 17:43:33.421875,64.99
2140,2020-04-10 17:43:33.437500,62.65
2141,2020-04-10 17:43:33.453125,58.23
2142,2020-04-10 17:43:33.468750,52.64
2143,2020-04-10 17:43:33.484375,47.02
2144,2020-04-10 17:43:33.500000,42.52
2145,2020-04-10 17:43:33.515625,39.95
2146,2020-04-10 17:43:33.531250,39.41
2147,2020-04-10 17:43:33.546875,40.31
2148,2020-04-10 17:43:33.562500,41.64
2149,2020-04-10 17:43:33.578125,42.41
2150,2020-04-10 17:43:33.593750,42.04
2151,2020-04-10 17:43:33.609375,40.48
2152,2020-04-10 17:43:33.625000,37.98
2153,2020-04-10 17:43:33.640625,34.88
2154,2020-04-10 17:43:33.656250,31.32
2155,2020-04-10 17:43:33.671875,27.26
2156,2020-04-10 17:43:33.687500,22.6
2157,2020-04-10 17:43:33.703125,17.4
2158,2020-04-10 17:43:33.718750,11.96
2159,2020-04-10 17:43:33.734375,6.72
2160,2020-04-10 17:43:33.750000,2.0
2161,2020-04-10 17:43:33.765625,-2.15
2162,2020-04-10 17:43:33.781250,-5.96
2163,2020-04-10 17:43:33.796875,-9.79
2164,2020-04-10 17:43:33.812500,-13.85
2165,2020-04-10 17:43:33.828125,-18.08
2166,2020-04-10 17:43:33.843750,-22.18
2167,2020-04-10 17:43:33.859375,-25.82
2168,2020-04-10 17:43:33.875000,-28.86
2169,2020-04-10 17:43:33.890625,-31.49
2170,2020-04-10 17:43:33.906250,-34.24
2171,2020-04-10 17:43:33.921875,-37.75
2172,2020-04-10 17:43:33.937500,-42.59
2173,2020-04-10 17:43:33.953125,-49.03
2174,2020-04-10 17:43:33.968750,-56.81
2175,2020-04-10 17:43:33.984375,-64.98
2176,2020-04-10 17:43:34.000000,-71.92
2177,2020-04-10 17:43:34.015625,-75.61
2178,2020-04-10 17:43:34.031250,-74.08
2179,2020-04-10 17:43:34.046875,-66.12
2180,2020-04-10 17:43:34.062500,-51.8
2181,2020-04-10 17:43:34.078125,-32.59
2182,2020-04-10 17:43:34.093750,-10.99
2183,2020-04-10 17:43:34.109375,10.2
2184,2020-04-10 17:43:34.125000,28.64
2185,2020-04-10 17:43:34.140625,42.94
2186,2020-04-10 17:43:34.156250,52.65
2187,2020-04-10 17:43:34.171875,57.96
2188,2020-04-10 17:43:34.187500,59.29
2189,2020-04-10 17:43:34.203125,57.2
2190,2020-04-10 17:43:34.218750,52.35
2191,2020-04-10 17:43:34.234375,45.77
2192,2020-04-10 17:43:34.250000,38.76
2193,2020-04-10 17:43:34.265625,32.73
2194,2020-04-10 17:43:34.281250,28.8
2195,2020-04-10 17:43:34.296875,27.42
2196,2020-04-10 17:43:34.312500,28.27
2197,2020-04-10 17:43:34.328125,30.4
2198,2020-04-10 17:43:34.343750,32.59
2199,2020-04-10 17:43:34.359375,33.74
2200,2020-04-10 17:43:34.375000,33.24
2201,2020-04-10 17:43:34.390625,31.0
2202,2020-04-10 17:43:34.406250,27.39
2203,2020-04-10 17:43:34.421875,22.97
2204,2020-04-10 17:43:34.437500,18.3
2205,2020-04-10 17:43:34.453125,13.72
2206,2020-04-10 17:43:34.468750,9.3
2207,2020-04-10 17:43:34.484375,4.92
2208,2020-04-10 17:43:34.500000,0.34
2209,2020-04-10 17:43:34.515625,-4.6
2210,2020-04-10 17:43:34.531250,-9.89
2211,2020-04-10 17:43:34.546875,-15.33
2212,2020-04-10 17:43:34.562500,-20.54
2213,2020-04-10 17:43:34.578125,-25.14
2214,2020-04-10 17:43:34.593750,-28.86
2215,2020-04-10 17:43:34.609375,-31.68
2216,2020-04-10 17:43:34.625000,-33.89
2217,2020-04-10 17:43:34.640625,-36.06
2218,2020-04-10 17:43:34.656250,-38.92
2219,2020-04-10 17:43:34.671875,-43.16
2220,2020-04-10 17:43:34.687500,-49.14
2221,2020-04-10 17:43:34.703125,-56.61
2222,2020-04-10 17:43:34.718750,-64.5
2223,2020-04-10 17:43:34.734375,-71.0
2224,2020-04-10 17:43:34.750000,-73.89
2225,2020-04-10 17:43:34.765625,-71.25
2226,2020-04-10 17:43:34.781250,-62.13
2227,2020-04-10 17:43:34.796875,-47.0
2228,2020-04-10 17:43:34.812500,-27.68
2229,2020-04-10 17:43:34.828125,-6.86
2230,2020-04-10 17:43:34.843750,12.82
2231,2020-04-10 17:43:34.859375,29.4
2232,2020-04-10 17:43:34.875000,41.96
2233,2020-04-10 17:43:34.890625,50.42
2234,2020-04-10 17:43:34.906250,55.1
2235,2020-04-10 17:43:34.921875,56.35
2236,2020-04-10 17:43:34.937500,54.53
2237,2020-04-10 17:43:34.953125,50.14
2238,2020-04-10 17:43:34.968750,44.07
2239,2020-04-10 17:43:34.984375,37.62
2240,2020-04-10 17:43:35.000000,32.19
2241,2020-04-10 17:43:35.015625,28.82
2242,2020-04-10 17:43:35.031250,27.85
2243,2020-04-10 17:43:35.046875,28.81
2244,2020-04-10 17:43:35.062500,30.67
2245,2020-04-10 17:43:35.078125,32.28
2246,2020-04-10 17:43:35.093750,32.79
2247,2020-04-10 17:43:35.109375,31.81
2248,2020-04-10 17:43:35.125000,29.44
2249,2020-04-10 17:43:35.140625,26.04
2250,2020-04-10 17:43:35.156250,22.02
2251,2020-04-10 17:43:35.171875,17.66
2252,2020-04-10 17:43:35.187500,13.08
2253,2020-04-10 17:43:35.203125,8.27
2254,2020-04-10 17:43:35.218750,3.14
2255,2020-04-10 17:43:35.234375,-2.33
2256,2020-04-10 17:43:35.250000,-8.06
2257,2020-04-10 17:43:35.265625,-13.86
2258,2020-04-10 17:43:35.281250,-19.43
2259,2020-04-10 17:43:35.296875,-24.51
2260,2020-04-10 17:43:35.312500,-28.88
2261,2020-04-10 17:43:35.328125,-32.49
2262,2020-04-10 17:43:35.343750,-35.42
2263,2020-04-10 17:43:35.359375,-37.89
2264,2020-04-10 17:43:35.375000,-40.28
2265,2020-04-10 17:43:35.390625,-43.09
2266,2020-04-10 17:43:35.406250,-46.91
2267,2020-04-10 17:43:35.421875,-52.31
2268,2020-04-10 17:43:35.437500,-59.44
2269,2020-04-10 17:43:35.453125,-67.72
2270,2020-04-10 17:43:35.468750,-75.55
2271,2020-04-10 17:43:35.484375,-80.57
2272,2020-04-10 17:43:35.500000,-80.33
2273,2020-04-10 17:43:35.515625,-73.15
2274,2020-04-10 17:43:35.531250,-58.91
2275,2020-04-10 17:43:35.546875,-39.22
2276,2020-04-10 17:43:35.562500,-16.92
2277,2020-04-10 17:43:35.578125,4.89
2278,2020-04-10 17:43:35.593750,23.8
2279,2020-04-10 17:43:35.609375,38.63
2280,2020-04-10 17:43:35.625000,49.3
2281,2020-04-10 17:43:35.640625,56.28
2282,2020-04-10 17:43:35.656250,60.06
2283,2020-04-10 17:43:35.671875,60.85
2284,2020-04-10 17:43:35.687500,58.8
2285,2020-04-10 17:43:35.703125,54.36
2286,2020-04-10 17:43:35.718750,48.48
2287,2020-04-10 17:43:35.734375,42.55
2288,2020-04-10 17:43:35.750000,37.98
2289,2020-04-10 17:43:35.765625,35.64
2290,2020-04-10 17:43:35.781250,35.6
2291,2020-04-10 17:43:35.796875,37.12
2292,2020-04-10 17:43:35.812500,39.02
2293,2020-04-10 17:43:35.828125,40.19
2294,2020-04-10 17:43:35.843750,39.95
2295,2020-04-10 17:43:35.859375,38.19
2296,2020-04-10 17:43:35.875000,35.2
2297,2020-04-10 17:43:35.890625,31.37
2298,2020-04-10 17:43:35.906250,27.02
2299,2020-04-10 17:43:35.921875,22.29
2300,2020-04-10 17:43:35.937500,17.18
2301,2020-04-10 17:43:35.953125,11.69
2302,2020-04-10 17:43:35.968750,5.91
2303,2020-04-10 17:43:35.984375,0.02
2304,2020-04-10 17:43:36.000000,-5.74
2305,2020-04-10 17:43:36.015625,-11.17
2306,2020-04-10 17:43:36.031250,-16.14
2307,2020-04-10 17:43:36.046875,-20.62
2308,2020-04-10 17:43:36.062500,-24.64
2309,2020-04-10 17:43:36.078125,-28.25
2310,2020-04-10 17:43:36.093750,-31.51
2311,2020-04-10 17:43:36.109375,-34.53
2312,2020-04-10 17:43:36.125000,-37.53
2313,2020-04-10 17:43:36.140625,-40.83
2314,2020-04-10 17:43:36.156250,-44.92
2315,2020-04-10 17:43:36.171875,-50.29
2316,2020-04-10 17:43:36.187500,-57.12
2317,2020-04-10 17:43:36.203125,-64.93
2318,2020-04-10 17:43:36.218750,-72.38
2319,2020-04-10 17:43:36.234375,-77.38
2320,2020-04-10 17:43:36.250000,-77.65
2321,2020-04-10 17:43:36.265625,-71.52
2322,2020-04-10 17:43:36.281250,-58.65
2323,2020-04-10 17:43:36.296875,-40.27
2324,2020-04-10 17:43:36.312500,-18.84
2325,2020-04-10 17:43:36.328125,2.72
2326,2020-04-10 17:43:36.343750,21.96
2327,2020-04-10 17:43:36.359375,37.42
2328,2020-04-10 17:43:36.375000,48.68
2329,2020-04-10 17:43:36.390625,55.97
2330,2020-04-10 17:43:36.406250,59.71
2331,2020-04-10 17:43:36.421875,60.24
2332,2020-04-10 17:43:36.437500,57.91
2333,2020-04-10 17:43:36.453125,53.36
2334,2020-04-10 17:43:36.468750,47.62
2335,2020-04-10 17:43:36.484375,42.04
2336,2020-04-10 17:43:36.500000,37.91
2337,2020-04-10 17:43:36.515625,35.95
2338,2020-04-10 17:43:36.531250,36.12
2339,2020-04-10 17:43:36.546875,37.64
2340,2020-04-10 17:43:36.562500,39.39
2341,2020-04-10 17:43:36.578125,40.37
2342,2020-04-10 17:43:36.593750,40.04
2343,2020-04-10 17:43:36.609375,38.4
2344,2020-04-10 17:43:36.625000,35.78
2345,2020-04-10 17:43:36.640625,32.6
2346,2020-04-10 17:43:36.656250,29.09
2347,2020-04-10 17:43:36.671875,25.29
2348,2020-04-10 17:43:36.687500,21.1
2349,2020-04-10 17:43:36.703125,16.49
2350,2020-04-10 17:43:36.718750,11.52
2351,2020-04-10 17:43:36.734375,6.39
2352,2020-04-10 17:43:36.750000,1.3
2353,2020-04-10 17:43:36.765625,-3.65
2354,2020-04-10 17:43:36.781250,-8.47
2355,2020-04-10 17:43:36.796875,-13.18
2356,2020-04-10 17:43:36.812500,-17.75
2357,2020-04-10 17:43:36.828125,-22.0
2358,2020-04-10 17:43:36.843750,-25.73
2359,2020-04-10 17:43:36.859375,-28.81
2360,2020-04-10 17:43:36.875000,-31.36
2361,2020-04-10 17:43:36.890625,-33.84
2362,2020-04-10 17:43:36.906250,-36.98
2363,2020-04-10 17:43:36.921875,-41.55
2364,2020-04-10 17:43:36.937500,-48.05
2365,2020-04-10 17:43:36.953125,-56.29
2366,2020-04-10 17:43:36.968750,-65.2
2367,2020-04-10 17:43:36.984375,-72.87
2368,2020-04-10 17:43:37.000000,-76.93
2369,2020-04-10 17:43:37.015625,-75.29
2370,2020-04-10 17:43:37.031250,-66.89
2371,2020-04-10 17:43:37.046875,-52.15
2372,2020-04-10 17:43:37.062500,-32.94
2373,2020-04-10 17:43:37.078125,-11.99
2374,2020-04-10 17:43:37.093750,7.96
2375,2020-04-10 17:43:37.109375,24.85
2376,2020-04-10 17:43:37.125000,37.66
2377,2020-04-10 17:43:37.140625,46.26
2378,2020-04-10 17:43:37.156250,50.97
2379,2020-04-10 17:43:37.171875,52.23
2380,2020-04-10 17:43:37.187500,50.53
2381,2020-04-10 17:43:37.203125,46.47
2382,2020-04-10 17:43:37.218750,40.99
2383,2020-04-10 17:43:37.234375,35.33
2384,2020-04-10 17:43:37.250000,30.75
2385,2020-04-10 17:43:37.265625,28.18
2386,2020-04-10 17:43:37.281250,27.87
2387,2020-04-10 17:43:37.296875,29.27
2388,2020-04-10 17:43:37.312500,31.31
2389,2020-04-10 17:43:37.328125,32.79
2390,2020-04-10 17:43:37.343750,32.9
2391,2020-04-10 17:43:37.359375,31.37
2392,2020-04-10 17:43:37.375000,28.55
2393,2020-04-10 17:43:37.390625,25.0
2394,2020-04-10 17:43:37.406250,21.23
2395,2020-04-10 17:43:37.421875,17.45
2396,2020-04-10 17:43:37.437500,13.5
2397,2020-04-10 17:43:37.453125,9.09
2398,2020-04-10 17:43:37.468750,4.0
2399,2020-04-10 17:43:37.484375,-1.71
2400,2020-04-10 17:43:37.500000,-7.73
2401,2020-04-10 17:43:37.515625,-13.55
2402,2020-04-10 17:43:37.531250,-18.76
2403,2020-04-10 17:43:37.546875,-23.13
2404,2020-04-10 17:43:37.562500,-26.71
2405,2020-04-10 17:43:37.578125,-29.73
2406,2020-04-10 17:43:37.593750,-32.51
2407,2020-04-10 17:43:37.609375,-35.35
2408,2020-04-10 17:43:37.625000,-38.55
2409,2020-04-10 17:43:37.640625,-42.45
2410,2020-04-10 17:43:37.656250,-47.45
2411,2020-04-10 17:43:37.671875,-53.73
2412,2020-04-10 17:43:37.687500,-61.02
2413,2020-04-10 17:43:37.703125,-68.26
2414,2020-04-10 17:43:37.718750,-73.61
2415,2020-04-10 17:43:37.734375,-74.87
2416,2020-04-10 17:43:37.750000,-70.27
2417,2020-04-10 17:43:37.765625,-59.2
2418,2020-04-10 17:43:37.781250,-42.64
2419,2020-04-10 17:43:37.796875,-22.88
2420,2020-04-10 17:43:37.812500,-2.74
2421,2020-04-10 17:43:37.828125,15.3
2422,2020-04-10 17:43:37.843750,29.87
2423,2020-04-10 17:43:37.859375,40.64
2424,2020-04-10 17:43:37.875000,47.94
2425,2020-04-10 17:43:37.890625,52.2
2426,2020-04-10 17:43:37.906250,53.6
2427,2020-04-10 17:43:37.921875,52.17
2428,2020-04-10 17:43:37.937500,48.14
2429,2020-04-10 17:43:37.953125,42.32
2430,2020-04-10 17:43:37.968750,36.11
2431,2020-04-10 17:43:37.984375,31.08
2432,2020-04-10 17:43:38.000000,28.41
2433,2020-04-10 17:43:38.015625,28.38
2434,2020-04-10 17:43:38.031250,30.27
2435,2020-04-10 17:43:38.046875,32.69
2436,2020-04-10 17:43:38.062500,34.25
2437,2020-04-10 17:43:38.078125,34.04
2438,2020-04-10 17:43:38.093750,31.94
2439,2020-04-10 17:43:38.109375,28.48
2440,2020-04-10 17:43:38.125000,24.43
2441,2020-04-10 17:43:38.140625,20.39
2442,2020-04-10 17:43:38.156250,16.55
2443,2020-04-10 17:43:38.171875,12.73
2444,2020-04-10 17:43:38.187500,8.54
2445,2020-04-10 17:43:38.203125,3.7
2446,2020-04-10 17:43:38.218750,-1.79
2447,2020-04-10 17:43:38.234375,-7.66
2448,2020-04-10 17:43:38.250000,-13.47
2449,2020-04-10 17:43:38.265625,-18.81
2450,2020-04-10 17:43:38.281250,-23.46
2451,2020-04-10 17:43:38.296875,-27.45
2452,2020-04-10 17:43:38.312500,-31.01
2453,2020-04-10 17:43:38.328125,-34.43
2454,2020-04-10 17:43:38.343750,-37.93
2455,2020-04-10 17:43:38.359375,-41.69
2456,2020-04-10 17:43:38.375000,-45.89
2457,2020-04-10 17:43:38.390625,-50.79
2458,2020-04-10 17:43:38.406250,-56.68
2459,2020-04-10 17:43:38.421875,-63.55
2460,2020-04-10 17:43:38.437500,-70.7
2461,2020-04-10 17:43:38.453125,-76.52
2462,2020-04-10 17:43:38.468750,-78.76
2463,2020-04-10 17:43:38.484375,-75.2
2464,2020-04-10 17:43:38.500000,-64.65
2465,2020-04-10 17:43:38.515625,-47.61
2466,2020-04-10 17:43:38.531250,-26.31
2467,2020-04-10 17:43:38.546875,-4.0
2468,2020-04-10 17:43:38.562500,16.21
2469,2020-04-10 17:43:38.578125,32.27
2470,2020-04-10 17:43:38.593750,43.63
2471,2020-04-10 17:43:38.609375,50.86
2472,2020-04-10 17:43:38.625000,54.95
2473,2020-04-10 17:43:38.640625,56.68
2474,2020-04-10 17:43:38.656250,56.42
2475,2020-04-10 17:43:38.671875,54.33
2476,2020-04-10 17:43:38.687500,50.75
2477,2020-04-10 17:43:38.703125,46.46
2478,2020-04-10 17:43:38.718750,42.5
2479,2020-04-10 17:43:38.734375,39.81
2480,2020-04-10 17:43:38.750000,38.81
2481,2020-04-10 17:43:38.765625,39.21
2482,2020-04-10 17:43:38.781250,40.2
2483,2020-04-10 17:43:38.796875,40.82
2484,2020-04-10 17:43:38.812500,40.38
2485,2020-04-10 17:43:38.828125,38.68
2486,2020-04-10 17:43:38.843750,35.96
2487,2020-04-10 17:43:38.859375,32.65
2488,2020-04-10 17:43:38.875000,29.02
2489,2020-04-10 17:43:38.890625,25.13
2490,2020-04-10 17:43:38.906250,20.82
2491,2020-04-10 17:43:38.921875,15.91
2492,2020-04-10 17:43:38.937500,10.45
2493,2020-04-10 17:43:38.953125,4.77
2494,2020-04-10 17:43:38.968750,-0.7
2495,2020-04-10 17:43:38.984375,-5.58
2496,2020-04-10 17:43:39.000000,-9.79
2497,2020-04-10 17:43:39.015625,-13.53
2498,2020-04-10 17:43:39.031250,-17.15
2499,2020-04-10 17:43:39.046875,-20.94
2500,2020-04-10 17:43:39.062500,-24.93
2501,2020-04-10 17:43:39.078125,-28.92
2502,2020-04-10 17:43:39.093750,-32.55
2503,2020-04-10 17:43:39.109375,-35.59
2504,2020-04-10 17:43:39.125000,-38.05
2505,2020-04-10 17:43:39.140625,-40.29
2506,2020-04-10 17:43:39.156250,-42.94
2507,2020-04-10 17:43:39.171875,-46.8
2508,2020-04-10 17:43:39.187500,-52.46
2509,2020-04-10 17:43:39.203125,-59.97
2510,2020-04-10 17:43:39.218750,-68.51
2511,2020-04-10 17:43:39.234375,-76.26
2512,2020-04-10 17:43:39.250000,-80.79
2513,2020-04-10 17:43:39.265625,-79.73
2514,2020-04-10 17:43:39.281250,-71.67
2515,2020-04-10 17:43:39.296875,-56.73
2516,2020-04-10 17:43:39.312500,-36.65
2517,2020-04-10 17:43:39.328125,-14.23
2518,2020-04-10 17:43:39.343750,7.58
2519,2020-04-10 17:43:39.359375,26.5
2520,2020-04-10 17:43:39.375000,41.33
2521,2020-04-10 17:43:39.390625,51.83
2522,2020-04-10 17:43:39.406250,58.29
2523,2020-04-10 17:43:39.421875,61.14
2524,2020-04-10 17:43:39.437500,60.81
2525,2020-04-10 17:43:39.453125,57.9
2526,2020-04-10 17:43:39.468750,53.29
2527,2020-04-10 17:43:39.484375,48.24
2528,2020-04-10 17:43:39.500000,44.06
2529,2020-04-10 17:43:39.515625,41.67
2530,2020-04-10 17:43:39.531250,41.32
2531,2020-04-10 17:43:39.546875,42.48
2532,2020-04-10 17:43:39.562500,44.15
2533,2020-04-10 17:43:39.578125,45.35
2534,2020-04-10 17:43:39.593750,45.49
2535,2020-04-10 17:43:39.609375,44.55
2536,2020-04-10 17:43:39.625000,42.9
2537,2020-04-10 17:43:39.640625,40.97
2538,2020-04-10 17:43:39.656250,38.93
2539,2020-04-10 17:43:39.671875,36.61
2540,2020-04-10 17:43:39.687500,33.59
2541,2020-04-10 17:43:39.703125,29.51
2542,2020-04-10 17:43:39.718750,24.34
2543,2020-04-10 17:43:39.734375,18.4
2544,2020-04-10 17:43:39.750000,12.33
2545,2020-04-10 17:43:39.765625,6.78
2546,2020-04-10 17:43:39.781250,2.15
2547,2020-04-10 17:43:39.796875,-1.49
2548,2020-04-10 17:43:39.812500,-4.46
2549,2020-04-10 17:43:39.828125,-7.25
2550,2020-04-10 17:43:39.843750,-10.32
2551,2020-04-10 17:43:39.859375,-13.92
2552,2020-04-10 17:43:39.875000,-18.04
2553,2020-04-10 17:43:39.890625,-22.41
2554,2020-04-10 17:43:39.906250,-26.69
2555,2020-04-10 17:43:39.921875,-30.61
2556,2020-04-10 17:43:39.937500,-34.08
2557,2020-04-10 17:43:39.953125,-37.2
2558,2020-04-10 17:43:39.968750,-40.21
2559,2020-04-10 17:43:39.984375,-43.46
2560,2020-04-10 17:43:40.000000,-47.39
2561,2020-04-10 17:43:40.015625,-52.49
2562,2020-04-10 17:43:40.031250,-59.09
2563,2020-04-10 17:43:40.046875,-67.12
2564,2020-04-10 17:43:40.062500,-75.69
2565,2020-04-10 17:43:40.078125,-83.0
2566,2020-04-10 17:43:40.093750,-86.67
2567,2020-04-10 17:43:40.109375,-84.39
2568,2020-04-10 17:43:40.125000,-74.91
2569,2020-04-10 17:43:40.140625,-58.61
2570,2020-04-10 17:43:40.156250,-37.56
2571,2020-04-10 17:43:40.171875,-14.88
2572,2020-04-10 17:43:40.187500,6.3
2573,2020-04-10 17:43:40.203125,23.75
2574,2020-04-10 17:43:40.218750,36.56
2575,2020-04-10 17:43:40.234375,44.95
2576,2020-04-10 17:43:40.250000,49.65
2577,2020-04-10 17:43:40.265625,51.36
2578,2020-04-10 17:43:40.281250,50.5
2579,2020-04-10 17:43:40.296875,47.41
2580,2020-04-10 17:43:40.312500,42.69
2581,2020-04-10 17:43:40.328125,37.34
2582,2020-04-10 17:43:40.343750,32.64
2583,2020-04-10 17:43:40.359375,29.7
2584,2020-04-10 17:43:40.375000,29.0
2585,2020-04-10 17:43:40.390625,30.21
2586,2020-04-10 17:43:40.406250,32.31
2587,2020-04-10 17:43:40.421875,34.15
2588,2020-04-10 17:43:40.437500,34.92
2589,2020-04-10 17:43:40.453125,34.41
2590,2020-04-10 17:43:40.468750,32.96
2591,2020-04-10 17:43:40.484375,31.09
2592,2020-04-10 17:43:40.500000,29.11
2593,2020-04-10 17:43:40.515625,26.9
2594,2020-04-10 17:43:40.531250,24.02
2595,2020-04-10 17:43:40.546875,20.0
2596,2020-04-10 17:43:40.562500,14.75
2597,2020-04-10 17:43:40.578125,8.69
2598,2020-04-10 17:43:40.593750,2.61
2599,2020-04-10 17:43:40.609375,-2.62
2600,2020-04-10 17:43:40.625000,-6.5
2601,2020-04-10 17:43:40.640625,-9.12
2602,2020-04-10 17:43:40.656250,-11.11
2603,2020-04-10 17:43:40.671875,-13.32
2604,2020-04-10 17:43:40.687500,-16.37
2605,2020-04-10 17:43:40.703125,-20.4
2606,2020-04-10 17:43:40.718750,-25.02
2607,2020-04-10 17:43:40.734375,-29.54
2608,2020-04-10 17:43:40.750000,-33.32
2609,2020-04-10 17:43:40.765625,-36.12
2610,2020-04-10 17:43:40.781250,-38.2
2611,2020-04-10 17:43:40.796875,-40.21
2612,2020-04-10 17:43:40.812500,-42.95
2613,2020-04-10 17:43:40.828125,-47.14
2614,2020-04-10 17:43:40.843750,-53.13
2615,2020-04-10 17:43:40.859375,-60.8
2616,2020-04-10 17:43:40.875000,-69.34
2617,2020-04-10 17:43:40.890625,-77.28
2618,2020-04-10 17:43:40.906250,-82.65
2619,2020-04-10 17:43:40.921875,-83.39
2620,2020-04-10 17:43:40.937500,-77.92
2621,2020-04-10 17:43:40.953125,-65.73
2622,2020-04-10 17:43:40.968750,-47.69
2623,2020-04-10 17:43:40.984375,-25.92
2624,2020-04-10 17:43:41.000000,-3.23
2625,2020-04-10 17:43:41.015625,17.59
2626,2020-04-10 17:43:41.031250,34.5
2627,2020-04-10 17:43:41.046875,46.52
2628,2020-04-10 17:43:41.062500,53.64
2629,2020-04-10 17:43:41.078125,56.51
2630,2020-04-10 17:43:41.093750,56.06
2631,2020-04-10 17:43:41.109375,53.25
2632,2020-04-10 17:43:41.125000,48.99
2633,2020-04-10 17:43:41.140625,44.24
2634,2020-04-10 17:43:41.156250,39.89
2635,2020-04-10 17:43:41.171875,36.74
2636,2020-04-10 17:43:41.187500,35.28
2637,2020-04-10 17:43:41.203125,35.55
2638,2020-04-10 17:43:41.218750,37.07
2639,2020-04-10 17:43:41.234375,39.04
2640,2020-04-10 17:43:41.250000,40.58
2641,2020-04-10 17:43:41.265625,41.06
2642,2020-04-10 17:43:41.281250,40.25
2643,2020-04-10 17:43:41.296875,38.33
2644,2020-04-10 17:43:41.312500,35.74
2645,2020-04-10 17:43:41.328125,32.92
2646,2020-04-10 17:43:41.343750,30.09
2647,2020-04-10 17:43:41.359375,27.15
2648,2020-04-10 17:43:41.375000,23.78
2649,2020-04-10 17:43:41.390625,19.62
2650,2020-04-10 17:43:41.406250,14.54
2651,2020-04-10 17:43:41.421875,8.76
2652,2020-04-10 17:43:41.437500,2.84
2653,2020-04-10 17:43:41.453125,-2.54
2654,2020-04-10 17:43:41.468750,-6.86
2655,2020-04-10 17:43:41.484375,-9.99
2656,2020-04-10 17:43:41.500000,-12.23
2657,2020-04-10 17:43:41.515625,-14.25
2658,2020-04-10 17:43:41.531250,-16.76
2659,2020-04-10 17:43:41.546875,-20.25
2660,2020-04-10 17:43:41.562500,-24.74
2661,2020-04-10 17:43:41.578125,-29.78
2662,2020-04-10 17:43:41.593750,-34.64
2663,2020-04-10 17:43:41.609375,-38.64
2664,2020-04-10 17:43:41.625000,-41.51
2665,2020-04-10 17:43:41.640625,-43.52
2666,2020-04-10 17:43:41.656250,-45.42
2667,2020-04-10 17:43:41.671875,-48.19
2668,2020-04-10 17:43:41.687500,-52.69
2669,2020-04-10 17:43:41.703125,-59.25
2670,2020-04-10 17:43:41.718750,-67.48
2671,2020-04-10 17:43:41.734375,-76.11
2672,2020-04-10 17:43:41.750000,-83.15
2673,2020-04-10 17:43:41.765625,-86.32
2674,2020-04-10 17:43:41.781250,-83.61
2675,2020-04-10 17:43:41.796875,-73.99
2676,2020-04-10 17:43:41.812500,-57.86
2677,2020-04-10 17:43:41.828125,-36.98
2678,2020-04-10 17:43:41.843750,-14.06
2679,2020-04-10 17:43:41.859375,8.02
2680,2020-04-10 17:43:41.875000,26.99
2681,2020-04-10 17:43:41.890625,41.6
2682,2020-04-10 17:43:41.906250,51.57
2683,2020-04-10 17:43:41.921875,57.23
2684,2020-04-10 17:43:41.937500,59.2
2685,2020-04-10 17:43:41.953125,58.14
2686,2020-04-10 17:43:41.968750,54.81
2687,2020-04-10 17:43:41.984375,50.12
2688,2020-04-10 17:43:42.000000,45.14
2689,2020-04-10 17:43:42.015625,40.97
2690,2020-04-10 17:43:42.031250,38.37
2691,2020-04-10 17:43:42.046875,37.63
2692,2020-04-10 17:43:42.062500,38.48
2693,2020-04-10 17:43:42.078125,40.26
2694,2020-04-10 17:43:42.093750,42.15
2695,2020-04-10 17:43:42.109375,43.5
2696,2020-04-10 17:43:42.125000,43.89
2697,2020-04-10 17:43:42.140625,43.16
2698,2020-04-10 17:43:42.156250,41.42
2699,2020-04-10 17:43:42.171875,38.85
2700,2020-04-10 17:43:42.187500,35.69
2701,2020-04-10 17:43:42.203125,32.18
2702,2020-04-10 17:43:42.218750,28.43
2703,2020-04-10 17:43:42.234375,24.47
2704,2020-04-10 17:43:42.250000,20.22
2705,2020-04-10 17:43:42.265625,15.58
2706,2020-04-10 17:43:42.281250,10.56
2707,2020-04-10 17:43:42.296875,5.4
2708,2020-04-10 17:43:42.312500,0.51
2709,2020-04-10 17:43:42.328125,-3.65
2710,2020-04-10 17:43:42.343750,-6.8
2711,2020-04-10 17:43:42.359375,-9.02
2712,2020-04-10 17:43:42.375000,-10.77
2713,2020-04-10 17:43:42.390625,-12.69
2714,2020-04-10 17:43:42.406250,-15.36
2715,2020-04-10 17:43:42.421875,-19.0
2716,2020-04-10 17:43:42.437500,-23.36
2717,2020-04-10 17:43:42.453125,-27.83
2718,2020-04-10 17:43:42.468750,-31.75
2719,2020-04-10 17:43:42.484375,-34.7
2720,2020-04-10 17:43:42.500000,-36.74
2721,2020-04-10 17:43:42.515625,-38.4
2722,2020-04-10 17:43:42.531250,-40.49
2723,2020-04-10 17:43:42.546875,-43.9
2724,2020-04-10 17:43:42.562500,-49.28
2725,2020-04-10 17:43:42.578125,-56.73
2726,2020-04-10 17:43:42.593750,-65.64
2727,2020-04-10 17:43:42.609375,-74.52
2728,2020-04-10 17:43:42.625000,-81.23
2729,2020-04-10 17:43:42.640625,-83.44
2730,2020-04-10 17:43:42.656250,-79.3
2731,2020-04-10 17:43:42.671875,-68.15
2732,2020-04-10 17:43:42.687500,-50.77
2733,2020-04-10 17:43:42.703125,-29.29
2734,2020-04-10 17:43:42.718750,-6.52
2735,2020-04-10 17:43:42.734375,14.85
2736,2020-04-10 17:43:42.750000,32.85
2737,2020-04-10 17:43:42.765625,46.5
2738,2020-04-10 17:43:42.781250,55.61
2739,2020-04-10 17:43:42.796875,60.46
2740,2020-04-10 17:43:42.812500,61.53
2741,2020-04-10 17:43:42.828125,59.38
2742,2020-04-10 17:43:42.843750,54.8
2743,2020-04-10 17:43:42.859375,48.86
2744,2020-04-10 17:43:42.875000,42.87
2745,2020-04-10 17:43:42.890625,38.07
2746,2020-04-10 17:43:42.906250,35.29
2747,2020-04-10 17:43:42.921875,34.69
2748,2020-04-10 17:43:42.937500,35.74
2749,2020-04-10 17:43:42.953125,37.52
2750,2020-04-10 17:43:42.968750,39.1
2751,2020-04-10 17:43:42.984375,39.86
2752,2020-04-10 17:43:43.000000,39.66
2753,2020-04-10 17:43:43.015625,38.68
2754,2020-04-10 17:43:43.031250,37.23
2755,2020-04-10 17:43:43.046875,35.45
2756,2020-04-10 17:43:43.062500,33.29
2757,2020-04-10 17:43:43.078125,30.55
2758,2020-04-10 17:43:43.093750,27.05
2759,2020-04-10 17:43:43.109375,22.76
2760,2020-04-10 17:43:43.125000,17.87
2761,2020-04-10 17:43:43.140625,12.7
2762,2020-04-10 17:43:43.156250,7.64
2763,2020-04-10 17:43:43.171875,2.98
2764,2020-04-10 17:43:43.187500,-1.08
2765,2020-04-10 17:43:43.203125,-4.53
2766,2020-04-10 17:43:43.218750,-7.51
2767,2020-04-10 17:43:43.234375,-10.28
2768,2020-04-10 17:43:43.250000,-13.17
2769,2020-04-10 17:43:43.265625,-16.45
2770,2020-04-10 17:43:43.281250,-20.25
2771,2020-04-10 17:43:43.296875,-24.48
2772,2020-04-10 17:43:43.312500,-28.84
2773,2020-04-10 17:43:43.328125,-32.92
2774,2020-04-10 17:43:43.343750,-36.38
2775,2020-04-10 17:43:43.359375,-39.1
2776,2020-04-10 17:43:43.375000,-41.3
2777,2020-04-10 17:43:43.390625,-43.51
2778,2020-04-10 17:43:43.406250,-46.48
2779,2020-04-10 17:43:43.421875,-50.98
2780,2020-04-10 17:43:43.437500,-57.48
2781,2020-04-10 17:43:43.453125,-65.76
2782,2020-04-10 17:43:43.468750,-74.69
2783,2020-04-10 17:43:43.484375,-82.18
2784,2020-04-10 17:43:43.500000,-85.71
2785,2020-04-10 17:43:43.515625,-83.05
2786,2020-04-10 17:43:43.531250,-73.07
2787,2020-04-10 17:43:43.546875,-56.34
2788,2020-04-10 17:43:43.562500,-34.99
2789,2020-04-10 17:43:43.578125,-12.04
2790,2020-04-10 17:43:43.593750,9.5
2791,2020-04-10 17:43:43.609375,27.47
2792,2020-04-10 17:43:43.625000,40.89
2793,2020-04-10 17:43:43.640625,49.71
2794,2020-04-10 17:43:43.656250,54.4
2795,2020-04-10 17:43:43.671875,55.45
2796,2020-04-10 17:43:43.687500,53.38
2797,2020-04-10 17:43:43.703125,48.88
2798,2020-04-10 17:43:43.718750,42.99
2799,2020-04-10 17:43:43.734375,37.12
2800,2020-04-10 17:43:43.750000,32.67
2801,2020-04-10 17:43:43.765625,30.57
2802,2020-04-10 17:43:43.781250,30.92
2803,2020-04-10 17:43:43.796875,33.01
2804,2020-04-10 17:43:43.812500,35.65
2805,2020-04-10 17:43:43.828125,37.73
2806,2020-04-10 17:43:43.843750,38.66
2807,2020-04-10 17:43:43.859375,38.45
2808,2020-04-10 17:43:43.875000,37.46
2809,2020-04-10 17:43:43.890625,36.02
2810,2020-04-10 17:43:43.906250,34.12
2811,2020-04-10 17:43:43.921875,31.44
2812,2020-04-10 17:43:43.937500,27.53
2813,2020-04-10 17:43:43.953125,22.26
2814,2020-04-10 17:43:43.968750,15.96
2815,2020-04-10 17:43:43.984375,9.34
2816,2020-04-10 17:43:44.000000,3.24
2817,2020-04-10 17:43:44.015625,-1.82
2818,2020-04-10 17:43:44.031250,-5.78
2819,2020-04-10 17:43:44.046875,-9.08
2820,2020-04-10 17:43:44.062500,-12.39
2821,2020-04-10 17:43:44.078125,-16.19
2822,2020-04-10 17:43:44.093750,-20.62
2823,2020-04-10 17:43:44.109375,-25.36
2824,2020-04-10 17:43:44.125000,-29.91
2825,2020-04-10 17:43:44.140625,-33.84
2826,2020-04-10 17:43:44.156250,-37.0
2827,2020-04-10 17:43:44.171875,-39.58
2828,2020-04-10 17:43:44.187500,-41.99
2829,2020-04-10 17:43:44.203125,-44.66
2830,2020-04-10 17:43:44.218750,-47.96
2831,2020-04-10 17:43:44.234375,-52.22
2832,2020-04-10 17:43:44.250000,-57.65
2833,2020-04-10 17:43:44.265625,-64.22
2834,2020-04-10 17:43:44.281250,-71.36
2835,2020-04-10 17:43:44.296875,-77.78
2836,2020-04-10 17:43:44.312500,-81.52
2837,2020-04-10 17:43:44.328125,-80.39
2838,2020-04-10 17:43:44.343750,-72.78
2839,2020-04-10 17:43:44.359375,-58.31
2840,2020-04-10 17:43:44.375000,-38.26
2841,2020-04-10 17:43:44.390625,-15.24
2842,2020-04-10 17:43:44.406250,7.6
2843,2020-04-10 17:43:44.421875,27.47
2844,2020-04-10 17:43:44.437500,42.7
2845,2020-04-10 17:43:44.453125,52.88
2846,2020-04-10 17:43:44.468750,58.56
2847,2020-04-10 17:43:44.484375,60.68
2848,2020-04-10 17:43:44.500000,60.14
2849,2020-04-10 17:43:44.515625,57.6
2850,2020-04-10 17:43:44.531250,53.59
2851,2020-04-10 17:43:44.546875,48.73
2852,2020-04-10 17:43:44.562500,43.82
2853,2020-04-10 17:43:44.578125,39.76
2854,2020-04-10 17:43:44.593750,37.31
2855,2020-04-10 17:43:44.609375,36.77
2856,2020-04-10 17:43:44.625000,37.87
2857,2020-04-10 17:43:44.640625,39.83
2858,2020-04-10 17:43:44.656250,41.67
2859,2020-04-10 17:43:44.671875,42.57
2860,2020-04-10 17:43:44.687500,42.14
2861,2020-04-10 17:43:44.703125,40.44
2862,2020-04-10 17:43:44.718750,37.82
2863,2020-04-10 17:43:44.734375,34.65
2864,2020-04-10 17:43:44.750000,31.05
2865,2020-04-10 17:43:44.765625,26.92
2866,2020-04-10 17:43:44.781250,22.01
2867,2020-04-10 17:43:44.796875,16.25
2868,2020-04-10 17:43:44.812500,9.86
2869,2020-04-10 17:43:44.828125,3.43
2870,2020-04-10 17:43:44.843750,-2.4
2871,2020-04-10 17:43:44.859375,-7.21
2872,2020-04-10 17:43:44.875000,-11.05
2873,2020-04-10 17:43:44.890625,-14.41
2874,2020-04-10 17:43:44.906250,-17.99
2875,2020-04-10 17:43:44.921875,-22.27
2876,2020-04-10 17:43:44.937500,-27.28
2877,2020-04-10 17:43:44.953125,-32.49
2878,2020-04-10 17:43:44.968750,-37.17
2879,2020-04-10 17:43:44.984375,-40.72
2880,2020-04-10 17:43:45.000000,-43.07
2881,2020-04-10 17:43:45.015625,-44.79
2882,2020-04-10 17:43:45.031250,-46.91
2883,2020-04-10 17:43:45.046875,-50.54
2884,2020-04-10 17:43:45.062500,-56.45
2885,2020-04-10 17:43:45.078125,-64.57
2886,2020-04-10 17:43:45.093750,-73.76
2887,2020-04-10 17:43:45.109375,-81.92
2888,2020-04-10 17:43:45.125000,-86.42
2889,2020-04-10 17:43:45.140625,-84.87
2890,2020-04-10 17:43:45.156250,-75.95
2891,2020-04-10 17:43:45.171875,-59.91
2892,2020-04-10 17:43:45.187500,-38.6
2893,2020-04-10 17:43:45.203125,-14.9
2894,2020-04-10 17:43:45.218750,8.14
2895,2020-04-10 17:43:45.234375,28.14
2896,2020-04-10 17:43:45.250000,43.73
2897,2020-04-10 17:43:45.265625,54.55
2898,2020-04-10 17:43:45.281250,60.91
2899,2020-04-10 17:43:45.296875,63.33
2900,2020-04-10 17:43:45.312500,62.45
2901,2020-04-10 17:43:45.328125,59.05
2902,2020-04-10 17:43:45.343750,54.07
2903,2020-04-10 17:43:45.359375,48.66
2904,2020-04-10 17:43:45.375000,43.92
2905,2020-04-10 17:43:45.390625,40.64
2906,2020-04-10 17:43:45.406250,39.1
2907,2020-04-10 17:43:45.421875,39.08
2908,2020-04-10 17:43:45.437500,39.99
2909,2020-04-10 17:43:45.453125,41.18
2910,2020-04-10 17:43:45.468750,42.1
2911,2020-04-10 17:43:45.484375,42.43
2912,2020-04-10 17:43:45.500000,41.97
2913,2020-04-10 17:43:45.515625,40.61
2914,2020-04-10 17:43:45.531250,38.25
2915,2020-04-10 17:43:45.546875,34.86
2916,2020-04-10 17:43:45.562500,30.5
2917,2020-04-10 17:43:45.578125,25.39
2918,2020-04-10 17:43:45.593750,19.91
2919,2020-04-10 17:43:45.609375,14.42
2920,2020-04-10 17:43:45.625000,9.17
2921,2020-04-10 17:43:45.640625,4.16
2922,2020-04-10 17:43:45.656250,-0.79
2923,2020-04-10 17:43:45.671875,-5.88
2924,2020-04-10 17:43:45.687500,-11.15
2925,2020-04-10 17:43:45.703125,-16.43
2926,2020-04-10 17:43:45.718750,-21.33
2927,2020-04-10 17:43:45.734375,-25.47
2928,2020-04-10 17:43:45.750000,-28.68
2929,2020-04-10 17:43:45.765625,-31.12
2930,2020-04-10 17:43:45.781250,-33.23
2931,2020-04-10 17:43:45.796875,-35.64
2932,2020-04-10 17:43:45.812500,-38.94
2933,2020-04-10 17:43:45.828125,-43.62
2934,2020-04-10 17:43:45.843750,-49.88
2935,2020-04-10 17:43:45.859375,-57.44
2936,2020-04-10 17:43:45.875000,-65.36
2937,2020-04-10 17:43:45.890625,-71.99
2938,2020-04-10 17:43:45.906250,-75.21
2939,2020-04-10 17:43:45.921875,-73.02
2940,2020-04-10 17:43:45.937500,-64.22
2941,2020-04-10 17:43:45.953125,-49.02
2942,2020-04-10 17:43:45.968750,-29.05
2943,2020-04-10 17:43:45.984375,-7.0
2944,2020-04-10 17:43:46.000000,14.24
2945,2020-04-10 17:43:46.015625,32.3
2946,2020-04-10 17:43:46.031250,45.82
2947,2020-04-10 17:43:46.046875,54.42
2948,2020-04-10 17:43:46.062500,58.44
2949,2020-04-10 17:43:46.078125,58.58
2950,2020-04-10 17:43:46.093750,55.65
2951,2020-04-10 17:43:46.109375,50.56
2952,2020-04-10 17:43:46.125000,44.3
2953,2020-04-10 17:43:46.140625,37.95
2954,2020-04-10 17:43:46.156250,32.53
2955,2020-04-10 17:43:46.171875,28.82
2956,2020-04-10 17:43:46.187500,27.16
2957,2020-04-10 17:43:46.203125,27.41
2958,2020-04-10 17:43:46.218750,28.94
2959,2020-04-10 17:43:46.234375,30.87
2960,2020-04-10 17:43:46.250000,32.28
2961,2020-04-10 17:43:46.265625,32.52
2962,2020-04-10 17:43:46.281250,31.31
2963,2020-04-10 17:43:46.296875,28.76
2964,2020-04-10 17:43:46.312500,25.29
2965,2020-04-10 17:43:46.328125,21.39
2966,2020-04-10 17:43:46.343750,17.47
2967,2020-04-10 17:43:46.359375,13.7
2968,2020-04-10 17:43:46.375000,9.99
2969,2020-04-10 17:43:46.390625,6.01
2970,2020-04-10 17:43:46.406250,1.39
2971,2020-04-10 17:43:46.421875,-4.11
2972,2020-04-10 17:43:46.437500,-10.35
2973,2020-04-10 17:43:46.453125,-16.88
2974,2020-04-10 17:43:46.468750,-22.97
2975,2020-04-10 17:43:46.484375,-28.01
2976,2020-04-10 17:43:46.500000,-31.73
2977,2020-04-10 17:43:46.515625,-34.33
2978,2020-04-10 17:43:46.531250,-36.47
2979,2020-04-10 17:43:46.546875,-38.99
2980,2020-04-10 17:43:46.562500,-42.68
2981,2020-04-10 17:43:46.578125,-47.97
2982,2020-04-10 17:43:46.593750,-54.8
2983,2020-04-10 17:43:46.609375,-62.48
2984,2020-04-10 17:43:46.625000,-69.71
2985,2020-04-10 17:43:46.640625,-74.68
2986,2020-04-10 17:43:46.656250,-75.48
2987,2020-04-10 17:43:46.671875,-70.63
2988,2020-04-10 17:43:46.687500,-59.64
2989,2020-04-10 17:43:46.703125,-43.27
2990,2020-04-10 17:43:46.718750,-23.45
2991,2020-04-10 17:43:46.734375,-2.7
2992,2020-04-10 17:43:46.750000,16.56
2993,2020-04-10 17:43:46.765625,32.52
2994,2020-04-10 17:43:46.781250,44.25
2995,2020-04-10 17:43:46.796875,51.57
2996,2020-04-10 17:43:46.812500,54.71
2997,2020-04-10 17:43:46.828125,54.17
2998,2020-04-10 17:43:46.843750,50.64
2999,2020-04-10 17:43:46.859375,45.01
3000,2020-04-10 17:43:46.875000,38.49
3001,2020-04-10 17:43:46.890625,32.38
3002,2020-04-10 17:43:46.906250,27.82
3003,2020-04-10 17:43:46.921875,25.43
3004,2020-04-10 17:43:46.937500,25.14
3005,2020-04-10 17:43:46.953125,26.27
3006,2020-04-10 17:43:46.968750,27.86
3007,2020-04-10 17:43:46.984375,29.02
3008,2020-04-10 17:43:47.000000,29.24
3009,2020-04-10 17:43:47.015625,28.42
3010,2020-04-10 17:43:47.031250,26.77
3011,2020-04-10 17:43:47.046875,24.52
3012,2020-04-10 17:43:47.062500,21.74
3013,2020-04-10 17:43:47.078125,18.32
3014,2020-04-10 17:43:47.093750,14.03
3015,2020-04-10 17:43:47.109375,8.72
3016,2020-04-10 17:43:47.125000,2.45
3017,2020-04-10 17:43:47.140625,-4.45
3018,2020-04-10 17:43:47.156250,-11.44
3019,2020-04-10 17:43:47.171875,-17.96
3020,2020-04-10 17:43:47.187500,-23.55
3021,2020-04-10 17:43:47.203125,-28.0
3022,2020-04-10 17:43:47.218750,-31.41
3023,2020-04-10 17:43:47.234375,-34.14
3024,2020-04-10 17:43:47.250000,-36.81
3025,2020-04-10 17:43:47.265625,-40.16
3026,2020-04-10 17:43:47.281250,-44.85
3027,2020-04-10 17:43:47.296875,-51.21
3028,2020-04-10 17:43:47.312500,-58.96
3029,2020-04-10 17:43:47.328125,-66.95
3030,2020-04-10 17:43:47.343750,-73.21
3031,2020-04-10 17:43:47.359375,-75.42
3032,2020-04-10 17:43:47.375000,-71.59
3033,2020-04-10 17:43:47.390625,-60.87
3034,2020-04-10 17:43:47.406250,-44.05
3035,2020-04-10 17:43:47.421875,-23.31
3036,2020-04-10 17:43:47.437500,-1.64
3037,2020-04-10 17:43:47.453125,18.19
3038,2020-04-10 17:43:47.468750,34.37
3039,2020-04-10 17:43:47.484375,46.29
3040,2020-04-10 17:43:47.500000,54.26
3041,2020-04-10 17:43:47.515625,58.85
3042,2020-04-10 17:43:47.531250,60.5
3043,2020-04-10 17:43:47.546875,59.37
3044,2020-04-10 17:43:47.562500,55.68
3045,2020-04-10 17:43:47.578125,50.04
3046,2020-04-10 17:43:47.593750,43.63
3047,2020-04-10 17:43:47.609375,37.91
3048,2020-04-10 17:43:47.625000,34.14
3049,2020-04-10 17:43:47.640625,32.85
3050,2020-04-10 17:43:47.656250,33.57
3051,2020-04-10 17:43:47.671875,35.13
3052,2020-04-10 17:43:47.687500,36.17
3053,2020-04-10 17:43:47.703125,35.72
3054,2020-04-10 17:43:47.718750,33.6
3055,2020-04-10 17:43:47.734375,30.32
3056,2020-04-10 17:43:47.750000,26.66
3057,2020-04-10 17:43:47.765625,23.21
3058,2020-04-10 17:43:47.781250,19.98
3059,2020-04-10 17:43:47.796875,16.42
3060,2020-04-10 17:43:47.812500,11.8
3061,2020-04-10 17:43:47.828125,5.62
3062,2020-04-10 17:43:47.843750,-2.03
3063,2020-04-10 17:43:47.859375,-10.39
3064,2020-04-10 17:43:47.875000,-18.34
3065,2020-04-10 17:43:47.890625,-24.86
3066,2020-04-10 17:43:47.906250,-29.49
3067,2020-04-10 17:43:47.921875,-32.53
3068,2020-04-10 17:43:47.937500,-34.9
3069,2020-04-10 17:43:47.953125,-37.67
3070,2020-04-10 17:43:47.968750,-41.73
3071,2020-04-10 17:43:47.984375,-47.47
3072,2020-04-10 17:43:48.000000,-54.75
3073,2020-04-10 17:43:48.015625,-62.98
3074,2020-04-10 17:43:48.031250,-71.15
3075,2020-04-10 17:43:48.046875,-77.85
3076,2020-04-10 17:43:48.062500,-81.33
3077,2020-04-10 17:43:48.078125,-79.81
3078,2020-04-10 17:43:48.093750,-72.03
3079,2020-04-10 17:43:48.109375,-57.78
3080,2020-04-10 17:43:48.125000,-38.26
3081,2020-04-10 17:43:48.140625,-15.85
3082,2020-04-10 17:43:48.156250,6.46
3083,2020-04-10 17:43:48.171875,26.01
3084,2020-04-10 17:43:48.187500,41.13
